Date,Close,Volume
1995-01-06,6.8125,227200
1995-01-13,6.468999862670898,401200
1995-01-20,6.593999862670898,500000
1995-01-27,6.6875,111200
1995-02-03,6.4375,734800
1995-02-10,6.656499862670898,273600
1995-02-17,6.906499862670898,338800
1995-02-24,7.125,412800
1995-03-03,6.9375,496400
1995-03-10,6.843999862670898,366800
1995-03-17,6.968999862670898,181200
1995-03-24,7.25,530400
1995-03-31,7.156499862670898,269200
1995-04-07,6.968999862670898,150000
1995-04-14,7.375,320800
1995-04-21,7.406499862670898,820800
1995-04-28,7.375,420800
1995-05-05,7.6875,503600
1995-05-12,7.593999862670898,516800
1995-05-19,7.5625,166000
1995-05-26,7.6875,346000
1995-06-02,7.6875,224000
1995-06-09,7.9375,592000
1995-06-16,7.906499862670898,317200
1995-06-23,7.843999862670898,437200
1995-06-30,8.031499862670898,285200
1995-07-07,7.968999862670898,263600
1995-07-14,7.8125,166800
1995-07-21,7.8125,161200
1995-07-28,7.968999862670898,712800
1995-08-04,8.156499862670898,428400
1995-08-11,8.1875,462400
1995-08-18,8.125,616800
1995-08-25,8.093999862670898,562000
1995-09-01,7.968999862670898,357200
1995-09-08,8.343999862670898,415600
1995-09-15,8.468999862670898,233200
1995-09-22,8.375,267200
1995-09-29,8.281499862670898,190000
1995-10-06,7.906499862670898,275200
1995-10-13,8.25,475200
1995-10-20,8.343999862670898,217600
1995-10-27,8.5,642800
1995-11-03,8.843999862670898,1029200
1995-11-10,8.718999862670898,486000
1995-11-17,8.781499862670898,1365200
1995-11-24,8.75,357600
1995-12-01,9.125,345200
1995-12-08,9.406499862670898,636800
1995-12-15,9.0625,491200
1995-12-22,9.0,499600
1995-12-29,9.343999862670898,524000
1996-01-05,9.218999862670898,377200
1996-01-12,8.875,304400
1996-01-19,8.75,364000
1996-01-26,9.25,578400
1996-02-02,9.375,722400
1996-02-09,9.343999862670898,269200
1996-02-16,9.281499862670898,349600
1996-02-23,9.406499862670898,470800
1996-03-01,9.3125,1140000
1996-03-08,9.281499862670898,645600
1996-03-15,9.5,764400
1996-03-22,9.406499862670898,776000
1996-03-29,10.375,958000
1996-04-05,10.656499862670898,1418000
1996-04-12,10.25,1722800
1996-04-19,9.9375,1111600
1996-04-26,9.375,443200
1996-05-03,9.593999862670898,1989600
1996-05-10,9.5625,1368000
1996-05-17,9.406499862670898,479200
1996-05-24,9.968999862670898,1003200
1996-05-31,10.593999862670898,781200
1996-06-07,10.406499862670898,486000
1996-06-14,9.9375,489600
1996-06-21,7.968999862670898,3796400
1996-06-28,7.5625,1210400
1996-07-05,8.5,1512800
1996-07-12,8.3125,535200
1996-07-19,8.218999862670898,657200
1996-07-26,7.968999862670898,463600
1996-08-02,8.593999862670898,504800
1996-08-09,9.0,1360800
1996-08-16,9.125,169600
1996-08-23,8.718999862670898,233600
1996-08-30,8.75,85200
1996-09-06,8.718999862670898,206400
1996-09-13,8.406499862670898,889200
1996-09-20,8.093999862670898,468400
1996-09-27,8.0625,862800
1996-10-04,8.156499862670898,591600
1996-10-11,8.031499862670898,694400
1996-10-18,7.9375,408400
1996-10-25,7.968999862670898,491600
1996-11-01,8.156499862670898,435200
1996-11-08,8.5625,589600
1996-11-15,8.718999862670898,523600
1996-11-22,8.625,728400
1996-11-29,8.625,763200
1996-12-06,8.656499862670898,496400
1996-12-13,8.25,527200
1996-12-20,8.281499862670898,1206800
1996-12-27,8.5,300000
1997-01-03,8.6875,666000
1997-01-10,8.906499862670898,577200
1997-01-17,8.75,779200
1997-01-24,8.5,805200
1997-01-31,8.375,904400
1997-02-07,8.781499862670898,765200
1997-02-14,8.9375,790400
1997-02-21,9.593999862670898,1205200
1997-02-28,9.9375,559600
1997-03-07,10.0,732000
1997-03-14,9.5625,435600
1997-03-21,10.0,464800
1997-03-28,9.656499862670898,695600
1997-04-04,9.468999862670898,468800
1997-04-11,9.5,320400
1997-04-18,9.125,1168800
1997-04-25,9.906499862670898,1352400
1997-05-02,10.0625,881200
1997-05-09,10.25,538000
1997-05-16,10.25,436400
1997-05-23,10.843999862670898,525600
1997-05-30,11.093999862670898,295600
1997-06-06,11.156499862670898,631200
1997-06-13,11.0,316000
1997-06-20,10.9375,540400
1997-06-27,11.093999862670898,469200
1997-07-04,11.35949993133545,419600
1997-07-11,11.453499794006348,438400
1997-07-18,11.4375,449200
1997-07-25,12.0,1130400
1997-08-01,12.9375,862000
1997-08-08,13.5625,1010000
1997-08-15,13.625,706400
1997-08-22,13.406499862670898,631200
1997-08-29,14.0625,477600
1997-09-05,13.953499794006348,745600
1997-09-12,14.0,680800
1997-09-19,14.125,502400
1997-09-26,13.98449993133545,485200
1997-10-03,14.0,484800
1997-10-10,14.1875,410800
1997-10-17,13.531499862670898,501600
1997-10-24,14.23449993133545,796000
1997-10-31,13.73449993133545,638400
1997-11-07,13.468999862670898,645200
1997-11-14,13.156499862670898,418800
1997-11-21,14.10949993133545,605600
1997-11-28,14.25,131200
1997-12-05,14.6875,643200
1997-12-12,14.093999862670898,452800
1997-12-19,13.453499794006348,527600
1997-12-26,13.203499794006348,222800
1998-01-02,13.781499862670898,585600
1998-01-09,12.5625,933200
1998-01-16,12.29699993133545,952800
1998-01-23,12.468999862670898,808400
1998-01-30,12.75,1226800
1998-02-06,13.703499794006348,1265200
1998-02-13,13.73449993133545,462000
1998-02-20,14.468999862670898,548000
1998-02-27,14.42199993133545,714800
1998-03-06,14.828499794006348,791600
1998-03-13,15.25,763600
1998-03-20,15.75,387200
1998-03-27,15.015999794006348,480000
1998-04-03,15.265999794006348,1093600
1998-04-10,14.98449993133545,715200
1998-04-17,14.640999794006348,705200
1998-04-24,14.578499794006348,1037200
1998-05-01,15.5,938000
1998-05-08,15.67199993133545,505200
1998-05-15,16.25,979600
1998-05-22,15.828499794006348,896000
1998-05-29,16.203500747680664,860000
1998-06-05,15.85949993133545,360400
1998-06-12,15.125,606400
1998-06-19,14.703499794006348,1112400
1998-06-26,15.04699993133545,483200
1998-07-03,15.67199993133545,526400
1998-07-10,16.078500747680664,476400
1998-07-17,16.328500747680664,4096800
1998-07-24,16.3439998626709,1941600
1998-07-31,15.390999794006348,2035600
1998-08-07,14.953499794006348,858000
1998-08-14,15.031499862670898,620400
1998-08-21,15.015999794006348,976400
1998-08-28,13.968999862670898,563200
1998-09-04,14.281499862670898,735600
1998-09-11,13.406499862670898,303000
1998-09-18,13.9375,723600
1998-09-25,12.0,2046600
1998-10-02,11.0,2106800
1998-10-09,10.40625,1098200
1998-10-16,11.625,1219800
1998-10-23,15.0,840200
1998-10-30,13.375,1033800
1998-11-06,13.9375,1203200
1998-11-13,13.718999862670898,710200
1998-11-20,13.75,833600
1998-11-27,14.125,432400
1998-12-04,14.4375,1015800
1998-12-11,13.9375,706200
1998-12-18,14.1875,810200
1998-12-25,13.968999862670898,629600
1999-01-01,14.031499862670898,651800
1999-01-08,13.375,679000
1999-01-15,13.4375,963200
1999-01-22,13.625,408400
1999-01-29,13.656499862670898,771200
1999-02-05,13.625,617200
1999-02-12,12.031499862670898,596800
1999-02-19,12.8125,864000
1999-02-26,13.6875,597000
1999-03-05,13.625,434600
1999-03-12,14.5625,663800
1999-03-19,13.75,610200
1999-03-26,12.906499862670898,488600
1999-04-02,12.8125,445200
1999-04-09,12.8125,1107400
1999-04-16,14.343999862670898,627600
1999-04-23,13.5,708800
1999-04-30,14.0,508400
1999-05-07,12.8125,606600
1999-05-14,14.75,659800
1999-05-21,14.6875,837200
1999-05-28,13.75,900000
1999-06-04,13.718999862670898,725200
1999-06-11,14.8125,352000
1999-06-18,14.968999862670898,581000
1999-06-25,14.093999862670898,742200
1999-07-02,15.281499862670898,1096400
1999-07-09,14.0625,608400
1999-07-16,14.8125,444800
1999-07-23,14.6875,838400
1999-07-30,14.468999862670898,1015200
1999-08-06,14.0625,516600
1999-08-13,13.8125,600600
1999-08-20,13.093999862670898,1139200
1999-08-27,12.5625,640000
1999-09-03,13.1875,742200
1999-09-10,13.375,349600
1999-09-17,12.625,873200
1999-09-24,11.375,1284400
1999-10-01,12.781499862670898,832400
1999-10-08,12.875,612000
1999-10-15,13.0625,454200
1999-10-22,12.625,862400
1999-10-29,13.4375,1003600
1999-11-05,13.9375,739200
1999-11-12,13.5,339200
1999-11-19,13.968999862670898,689000
1999-11-26,13.4375,707800
1999-12-03,13.843999862670898,980400
1999-12-10,13.156499862670898,742000
1999-12-17,14.125,1192000
1999-12-24,12.968999862670898,477000
1999-12-31,12.5625,772000
2000-01-07,13.031499862670898,1291800
2000-01-14,13.375,827600
2000-01-21,12.75,415600
2000-01-28,11.25,1130600
2000-02-04,11.5625,1296800
2000-02-11,11.125,595800
2000-02-18,11.781499862670898,1339800
2000-02-25,11.656499862670898,1567800
2000-03-03,12.406499862670898,1618400
2000-03-10,11.3125,1225600
2000-03-17,12.3125,1855200
2000-03-24,12.843999862670898,806600
2000-03-31,13.343999862670898,787800
2000-04-07,12.75,956600
2000-04-14,12.093999862670898,545800
2000-04-21,12.9375,436600
2000-04-28,14.0,995800
2000-05-05,13.625,574800
2000-05-12,13.5625,605400
2000-05-19,13.718999862670898,600200
2000-05-26,13.4375,652400
2000-06-02,13.75,574600
2000-06-09,13.625,400600
2000-06-16,14.093999862670898,1013400
2000-06-23,14.0625,915000
2000-06-30,14.28125,1039800
2000-07-07,14.4375,597000
2000-07-14,14.3125,626800
2000-07-21,12.09375,1299800
2000-07-28,12.156499862670898,1793400
2000-08-04,12.406499862670898,728200
2000-08-11,12.8125,554200
2000-08-18,12.093999862670898,605000
2000-08-25,11.656499862670898,1164600
2000-09-01,11.781499862670898,1092000
2000-09-08,12.156499862670898,824400
2000-09-15,12.3125,831600
2000-09-22,11.5,1048200
2000-09-29,11.968999862670898,902000
2000-10-06,11.156499862670898,896600
2000-10-13,11.625,981200
2000-10-20,9.9375,1945800
2000-10-27,10.156499862670898,1303800
2000-11-03,10.4375,1653400
2000-11-10,11.125,3045200
2000-11-17,12.25,1478000
2000-11-24,12.375,498800
2000-12-01,12.5625,605400
2000-12-08,12.718999862670898,859000
2000-12-15,13.531499862670898,986800
2000-12-22,14.1875,1079600
2000-12-29,14.6875,578200
2001-01-05,13.843999862670898,719800
2001-01-12,14.781499862670898,1129000
2001-01-19,14.093999862670898,793600
2001-01-26,14.281499862670898,663800
2001-02-02,14.354999542236328,1262200
2001-02-09,14.25,707400
2001-02-16,14.300000190734863,740600
2001-02-23,14.6899995803833,643000
2001-03-02,14.5600004196167,963200
2001-03-09,15.399999618530273,836400
2001-03-16,14.600000381469727,1728400
2001-03-23,14.789999961853027,1563200
2001-03-30,15.234999656677246,702800
2001-04-06,15.274999618530273,381400
2001-04-13,15.300000190734863,392800
2001-04-20,15.949999809265137,803200
2001-04-27,15.949999809265137,1605200
2001-05-04,16.600000381469727,800000
2001-05-11,17.334999084472656,1130800
2001-05-18,17.725000381469727,1327600
2001-05-25,17.204999923706055,782200
2001-06-01,16.6299991607666,582600
2001-06-08,17.424999237060547,507200
2001-06-15,17.049999237060547,602200
2001-06-22,16.700000762939453,1124800
2001-06-29,16.21500015258789,977000
2001-07-06,15.675000190734863,453000
2001-07-13,15.854999542236328,860400
2001-07-20,16.46500015258789,455200
2001-07-27,16.56999969482422,897400
2001-08-03,16.75,490000
2001-08-10,16.725000381469727,512600
2001-08-17,17.584999084472656,623600
2001-08-24,17.8700008392334,784000
2001-08-31,17.895000457763672,750600
2001-09-07,17.700000762939453,835400
2001-09-14,17.5,86200
2001-09-21,15.029999732971191,815800
2001-09-28,15.899999618530273,919200
2001-10-05,16.325000762939453,762600
2001-10-12,17.010000228881836,497200
2001-10-19,14.5,2822800
2001-10-26,14.989999771118164,786000
2001-11-02,15.390000343322754,551400
2001-11-09,15.489999771118164,673800
2001-11-16,16.184999465942383,628000
2001-11-23,16.450000762939453,1155400
2001-11-30,16.399999618530273,945800
2001-12-07,17.0,1152200
2001-12-14,16.25,1165400
2001-12-21,17.200000762939453,884200
2001-12-28,16.96500015258789,271600
2002-01-04,17.364999771118164,843200
2002-01-11,15.194999694824219,3010600
2002-01-18,14.954999923706055,2307800
2002-01-25,15.265000343322754,1943000
2002-02-01,15.975000381469727,1212000
2002-02-08,16.575000762939453,705200
2002-02-15,16.895000457763672,1194400
2002-02-22,16.915000915527344,995000
2002-03-01,17.290000915527344,914600
2002-03-08,17.239999771118164,1586000
2002-03-15,16.950000762939453,887200
2002-03-22,16.68000030517578,1088200
2002-03-29,17.524999618530273,741600
2002-04-05,17.799999237060547,812000
2002-04-12,18.760000228881836,812800
2002-04-19,17.934999465942383,648800
2002-04-26,18.19499969482422,934400
2002-05-03,18.770000457763672,760200
2002-05-10,18.325000762939453,561000
2002-05-17,18.559999465942383,727600
2002-05-24,18.05500030517578,764400
2002-05-31,18.690000534057617,698000
2002-06-07,18.350000381469727,825200
2002-06-14,16.96500015258789,774800
2002-06-21,17.399999618530273,573000
2002-06-28,15.375,2012800
2002-07-05,15.28499984741211,757600
2002-07-12,14.675000190734863,655600
2002-07-19,13.949999809265137,893400
2002-07-26,14.100000381469727,1339200
2002-08-02,14.699999809265137,966800
2002-08-09,15.375,478800
2002-08-16,15.574999809265137,284600
2002-08-23,15.720000267028809,512800
2002-08-30,16.049999237060547,559800
2002-09-06,15.34000015258789,526400
2002-09-13,15.199999809265137,370800
2002-09-20,14.59000015258789,790000
2002-09-27,13.494999885559082,940600
2002-10-04,12.9399995803833,1137400
2002-10-11,13.135000228881836,583600
2002-10-18,13.074999809265137,976400
2002-10-25,13.975000381469727,892400
2002-11-01,14.024999618530273,515000
2002-11-08,14.100000381469727,506400
2002-11-15,14.350000381469727,479800
2002-11-22,14.470000267028809,533800
2002-11-29,14.9399995803833,449200
2002-12-06,15.595000267028809,559600
2002-12-13,15.175000190734863,475400
2002-12-20,16.5,1762800
2002-12-27,15.375,1117400
2003-01-03,15.5,508600
2003-01-10,15.300000190734863,488400
2003-01-17,15.125,456400
2003-01-24,14.5649995803833,294800
2003-01-31,14.34000015258789,437000
2003-02-07,13.625,478200
2003-02-14,14.675000190734863,778400
2003-02-21,15.03499984741211,1066400
2003-02-28,15.149999618530273,761600
2003-03-07,15.164999961853027,792600
2003-03-14,15.175000190734863,1160600
2003-03-21,16.510000228881836,773800
2003-03-28,16.200000762939453,545200
2003-04-04,15.925000190734863,761000
2003-04-11,15.449999809265137,521800
2003-04-18,15.649999618530273,602600
2003-04-25,16.204999923706055,944200
2003-05-02,17.065000534057617,1170200
2003-05-09,17.665000915527344,892400
2003-05-16,17.399999618530273,665400
2003-05-23,17.219999313354492,690400
2003-05-30,17.5,339800
2003-06-06,17.915000915527344,435400
2003-06-13,17.674999237060547,631200
2003-06-20,17.549999237060547,685000
2003-06-27,17.549999237060547,481200
2003-07-04,18.200000762939453,446600
2003-07-11,18.225000381469727,510600
2003-07-18,18.350000381469727,707600
2003-07-25,18.625,729600
2003-08-01,18.575000762939453,733400
2003-08-08,18.375,449600
2003-08-15,19.0,392400
2003-08-22,18.950000762939453,636000
2003-08-29,19.579999923706055,376400
2003-09-05,19.21500015258789,389800
2003-09-12,19.450000762939453,459400
2003-09-19,18.799999237060547,577400
2003-09-26,17.854999542236328,988400
2003-10-03,19.5,606000
2003-10-10,19.475000381469727,576000
2003-10-17,18.649999618530273,1042000
2003-10-24,18.010000228881836,746800
2003-10-31,17.899999618530273,564600
2003-11-07,18.25,1069800
2003-11-14,18.125,458400
2003-11-21,17.514999389648438,750600
2003-11-28,17.454999923706055,657400
2003-12-05,18.399999618530273,1871400
2003-12-12,18.395000457763672,1335600
2003-12-19,19.114999771118164,1365200
2003-12-26,19.385000228881836,478400
2004-01-02,19.280000686645508,715400
2004-01-09,20.0,1272200
2004-01-16,19.850000381469727,704800
2004-01-23,19.90999984741211,788200
2004-01-30,20.03499984741211,576400
2004-02-06,20.010000228881836,499600
2004-02-13,20.264999389648438,516400
2004-02-20,20.149999618530273,526600
2004-02-27,20.225000381469727,723800
2004-03-05,20.225000381469727,580200
2004-03-12,19.200000762939453,643800
2004-03-19,19.19499969482422,755000
2004-03-26,18.809999465942383,942600
2004-04-02,19.59000015258789,732000
2004-04-09,19.709999084472656,456400
2004-04-16,20.06999969482422,546000
2004-04-23,20.604999542236328,946600
2004-04-30,19.649999618530273,1078200
2004-05-07,19.65999984741211,851000
2004-05-14,19.225000381469727,653600
2004-05-21,19.625,849800
2004-05-28,20.325000762939453,987800
2004-06-04,20.389999389648438,721000
2004-06-11,20.434999465942383,903800
2004-06-18,21.530000686645508,1235800
2004-06-25,21.642850875854492,2335800
2004-07-02,21.55500030517578,1125000
2004-07-09,21.094999313354492,652800
2004-07-16,21.18000030517578,946000
2004-07-23,21.184999465942383,1611400
2004-07-30,21.155000686645508,1663000
2004-08-06,20.475000381469727,1018400
2004-08-13,20.954999923706055,870000
2004-08-20,22.190000534057617,814400
2004-08-27,22.729999542236328,934000
2004-09-03,22.950000762939453,742800
2004-09-10,22.850000381469727,756200
2004-09-17,22.764999389648438,670800
2004-09-24,22.415000915527344,622600
2004-10-01,22.799999237060547,1043600
2004-10-08,22.5,1000600
2004-10-15,23.0,1197600
2004-10-22,23.0049991607666,1240800
2004-10-29,23.459999084472656,1021800
2004-11-05,24.815000534057617,1050400
2004-11-12,25.0,862000
2004-11-19,24.875,864800
2004-11-26,25.55500030517578,597200
2004-12-03,26.2549991607666,1027600
2004-12-10,25.899999618530273,1315600
2004-12-17,26.25,988000
2004-12-24,26.934999465942383,635600
2004-12-31,26.389999389648438,548200
2005-01-07,24.5,1205400
2005-01-14,24.4950008392334,1094600
2005-01-21,24.299999237060547,651000
2005-01-28,23.774999618530273,692000
2005-02-04,25.075000762939453,850000
2005-02-11,24.844999313354492,828600
2005-02-18,24.950000762939453,1014200
2005-02-25,25.954999923706055,814400
2005-03-04,26.40999984741211,964400
2005-03-11,25.774999618530273,824200
2005-03-18,25.584999084472656,1050800
2005-03-25,24.94499969482422,691000
2005-04-01,26.5,1721600
2005-04-08,26.3799991607666,1112200
2005-04-15,24.4950008392334,1871600
2005-04-22,24.674999237060547,1513800
2005-04-29,24.114999771118164,1379000
2005-05-06,25.5,1182200
2005-05-13,24.665000915527344,1111800
2005-05-20,25.459999084472656,1072400
2005-05-27,25.579999923706055,979200
2005-06-03,24.674999237060547,955000
2005-06-10,24.510000228881836,980400
2005-06-17,24.899999618530273,1185600
2005-06-24,24.770000457763672,2670600
2005-07-01,25.5,1649200
2005-07-08,25.655000686645508,596200
2005-07-15,25.104999542236328,843000
2005-07-22,25.18000030517578,1037800
2005-07-29,24.924999237060547,1035800
2005-08-05,25.0,986600
2005-08-12,25.065000534057617,853400
2005-08-19,24.565000534057617,859800
2005-08-26,24.110000610351562,404800
2005-09-02,24.905000686645508,680600
2005-09-09,24.795000076293945,419400
2005-09-16,24.299999237060547,621800
2005-09-23,24.065000534057617,1154200
2005-09-30,24.905000686645508,1038000
2005-10-07,24.959999084472656,1056400
2005-10-14,25.975000381469727,1331000
2005-10-21,24.274999618530273,1980000
2005-10-28,25.375,1678400
2005-11-04,26.09000015258789,913800
2005-11-11,26.450000762939453,743800
2005-11-18,26.809999465942383,588400
2005-11-25,27.010000228881836,412800
2005-12-02,27.350000381469727,1095200
2005-12-09,27.2450008392334,1240200
2005-12-16,26.299999237060547,1090200
2005-12-23,26.53499984741211,1198600
2005-12-30,26.100000381469727,462200
2006-01-06,26.795000076293945,796400
2006-01-13,27.075000762939453,603400
2006-01-20,27.530000686645508,436600
2006-01-27,27.389999389648438,619400
2006-02-03,27.68000030517578,829000
2006-02-10,28.479999542236328,687600
2006-02-17,27.135000228881836,1203800
2006-02-24,26.889999389648438,689600
2006-03-03,26.709999084472656,791000
2006-03-10,27.149999618530273,826600
2006-03-17,27.5,799600
2006-03-24,27.229999542236328,694800
2006-03-31,27.625,899800
2006-04-07,26.790000915527344,806200
2006-04-14,26.375,471800
2006-04-21,26.149999618530273,986600
2006-04-28,26.204999923706055,1136000
2006-05-05,26.985000610351562,795600
2006-05-12,26.454999923706055,624400
2006-05-19,26.100000381469727,710400
2006-05-26,25.864999771118164,1207200
2006-06-02,26.315000534057617,974200
2006-06-09,25.875,1195400
2006-06-16,25.34000015258789,1024600
2006-06-23,25.2549991607666,1015000
2006-06-30,24.80500030517578,4232600
2006-07-07,24.625,1810800
2006-07-14,23.8799991607666,1609200
2006-07-21,24.354999542236328,1854400
2006-07-28,25.809999465942383,1591200
2006-08-04,26.094999313354492,1287600
2006-08-11,25.264999389648438,1325400
2006-08-18,26.05500030517578,892400
2006-08-25,25.209999084472656,890200
2006-09-01,25.7549991607666,1235800
2006-09-08,24.9950008392334,945600
2006-09-15,25.079999923706055,1360400
2006-09-22,24.795000076293945,1537200
2006-09-29,25.440000534057617,1785200
2006-10-06,26.219999313354492,1809800
2006-10-13,27.46500015258789,1396600
2006-10-20,28.024999618530273,1568800
2006-10-27,27.565000534057617,1462600
2006-11-03,27.905000686645508,1728800
2006-11-10,28.530000686645508,1710400
2006-11-17,30.25,2234600
2006-11-24,30.225000381469727,1138600
2006-12-01,30.25,1784000
2006-12-08,30.014999389648438,1682000
2006-12-15,29.885000228881836,1686200
2006-12-22,29.125,1737800
2006-12-29,29.520000457763672,852600
2007-01-05,29.100000381469727,1027400
2007-01-12,30.184999465942383,1077600
2007-01-19,30.350000381469727,1240400
2007-01-26,30.5,1856600
2007-02-02,30.809999465942383,1713200
2007-02-09,33.0,4174000
2007-02-16,32.63999938964844,2423370
2007-02-23,33.39500045776367,1953000
2007-03-02,32.88999938964844,3160998
2007-03-09,33.220001220703125,2247222
2007-03-16,32.81999969482422,1734000
2007-03-23,34.255001068115234,1271400
2007-03-30,33.46500015258789,1427000
2007-04-06,34.29999923706055,722800
2007-04-13,34.67499923706055,1038200
2007-04-20,37.560001373291016,2939698
2007-04-27,37.900001525878906,1717400
2007-05-04,37.494998931884766,1620400
2007-05-11,37.209999084472656,1910374
2007-05-18,36.810001373291016,1856965
2007-05-25,37.099998474121094,1595300
2007-06-01,38.04999923706055,1140400
2007-06-08,36.97999954223633,1130800
2007-06-15,37.91999816894531,1352400
2007-06-22,35.810001373291016,1420000
2007-06-29,35.560001373291016,1507500
2007-07-06,37.08000183105469,719500
2007-07-13,37.90999984741211,1171900
2007-07-20,37.95000076293945,3338000
2007-07-27,35.380001068115234,2479000
2007-08-03,36.18000030517578,3044800
2007-08-10,38.84000015258789,2891700
2007-08-17,37.58000183105469,2499300
2007-08-24,36.599998474121094,2037000
2007-08-31,36.33000183105469,1298500
2007-09-07,34.20000076293945,1750300
2007-09-14,34.11000061035156,2081100
2007-09-21,36.619998931884766,2299600
2007-09-28,37.869998931884766,1291300
2007-10-05,39.93000030517578,1216000
2007-10-12,39.59000015258789,1183500
2007-10-19,41.0,2360300
2007-10-26,44.38999938964844,2942300
2007-11-02,42.959999084472656,2191500
2007-11-09,41.619998931884766,1870825
2007-11-16,41.439998626708984,1835125
2007-11-23,42.0,1286865
2007-11-30,42.209999084472656,2401520
2007-12-07,43.45000076293945,1181617
2007-12-14,41.720001220703125,1474670
2007-12-21,42.40999984741211,2627600
2007-12-28,41.689998626708984,823538
2008-01-04,40.40999984741211,1923732
2008-01-11,38.0,2621500
2008-01-18,35.11000061035156,3078803
2008-01-25,36.36000061035156,2722136
2008-02-01,38.060001373291016,1795728
2008-02-08,36.349998474121094,2937660
2008-02-15,38.939998626708984,8062510
2008-02-22,38.779998779296875,1763515
2008-02-29,37.47999954223633,1453980
2008-03-07,35.779998779296875,2503580
2008-03-14,35.400001525878906,2817700
2008-03-21,37.70000076293945,3372662
2008-03-28,38.54999923706055,1545749
2008-04-04,40.560001373291016,1741100
2008-04-11,39.81999969482422,1548135
2008-04-18,44.27000045776367,3732817
2008-04-25,44.95000076293945,2299615
2008-05-02,44.09000015258789,1946026
2008-05-09,43.72999954223633,1740344
2008-05-16,44.720001220703125,1338513
2008-05-23,43.95000076293945,2100412
2008-05-30,44.720001220703125,2207512
2008-06-06,44.7599983215332,2112892
2008-06-13,43.2599983215332,2422593
2008-06-20,42.13999938964844,2203721
2008-06-27,42.36000061035156,6126454
2008-07-04,41.15999984741211,2113725
2008-07-11,41.41999816894531,1688262
2008-07-18,38.06999969482422,4550265
2008-07-25,37.59000015258789,3353721
2008-08-01,38.709999084472656,2234553
2008-08-08,39.72999954223633,1673245
2008-08-15,40.47999954223633,1334490
2008-08-22,40.099998474121094,1412788
2008-08-29,40.38999938964844,1442912
2008-09-05,39.7400016784668,1256886
2008-09-12,40.279998779296875,1721796
2008-09-19,41.38999938964844,3417077
2008-09-26,39.900001525878906,1603593
2008-10-03,36.52000045776367,2611447
2008-10-10,33.529998779296875,3590661
2008-10-17,32.22999954223633,3736758
2008-10-24,27.15999984741211,3791895
2008-10-31,30.31999969482422,2934992
2008-11-07,31.59000015258789,1836254
2008-11-14,29.8799991607666,1872719
2008-11-21,29.229999542236328,3113346
2008-11-28,33.439998626708984,1623798
2008-12-05,32.13999938964844,2861086
2008-12-12,32.2400016784668,3625944
2008-12-19,33.439998626708984,2720094
2008-12-26,33.58000183105469,1272461
2009-01-02,35.81999969482422,1345486
2009-01-09,32.540000915527344,3159207
2009-01-16,30.440000534057617,3120291
2009-01-23,30.010000228881836,1922188
2009-01-30,30.81999969482422,1874920
2009-02-06,30.860000610351562,4036853
2009-02-13,29.18000030517578,2408475
2009-02-20,27.31999969482422,1656925
2009-02-27,28.059999465942383,3136846
2009-03-06,25.549999237060547,2734321
2009-03-13,27.420000076293945,1793344
2009-03-20,29.489999771118164,2321332
2009-03-27,32.099998474121094,1390355
2009-04-03,32.849998474121094,1940487
2009-04-10,33.5,1246467
2009-04-17,29.670000076293945,2633749
2009-04-24,30.280000686645508,2232934
2009-05-01,30.690000534057617,1810585
2009-05-08,31.360000610351562,1690359
2009-05-15,30.649999618530273,1387547
2009-05-22,30.68000030517578,1236369
2009-05-29,31.010000228881836,1238157
2009-06-05,32.439998626708984,1708298
2009-06-12,34.02000045776367,1451921
2009-06-19,32.90999984741211,1162754
2009-06-26,33.36000061035156,1115545
2009-07-03,33.650001525878906,715266
2009-07-10,32.709999084472656,866949
2009-07-17,35.13999938964844,1316193
2009-07-24,36.060001373291016,998153
2009-07-31,34.91999816894531,1254316
2009-08-07,35.31999969482422,762972
2009-08-14,35.45000076293945,690480
2009-08-21,35.630001068115234,708545
2009-08-28,34.77000045776367,558136
2009-09-04,34.29999923706055,721488
2009-09-11,35.47999954223633,748390
2009-09-18,36.70000076293945,1029925
2009-09-25,36.380001068115234,938820
2009-10-02,36.119998931884766,804732
2009-10-09,37.97999954223633,821746
2009-10-16,37.4900016784668,1424443
2009-10-23,36.959999084472656,1077328
2009-10-30,35.310001373291016,1332990
2009-11-06,35.439998626708984,1196187
2009-11-13,36.0,876868
2009-11-20,36.34000015258789,1065508
2009-11-27,35.90999984741211,255616
2009-12-04,36.529998779296875,811900
2009-12-11,36.58000183105469,607473
2009-12-18,35.93000030517578,890474
2009-12-25,36.369998931884766,679779
2010-01-01,35.7400016784668,561373
2010-01-08,36.779998779296875,1007071
2010-01-15,36.2400016784668,685824
2010-01-22,36.060001373291016,537670
2010-01-29,35.47999954223633,728677
2010-02-05,35.029998779296875,768924
2010-02-12,38.040000915527344,1935625
2010-02-19,38.119998931884766,1067934
2010-02-26,38.529998779296875,775080
2010-03-05,40.349998474121094,794004
2010-03-12,40.400001525878906,1268879
2010-03-19,39.810001373291016,889639
2010-03-26,39.119998931884766,908428
2010-04-02,39.5,419241
2010-04-09,40.91999816894531,734600
2010-04-16,42.849998474121094,1533041
2010-04-23,43.2400016784668,878557
2010-04-30,43.040000915527344,1272634
2010-05-07,40.34000015258789,1425192
2010-05-14,40.810001373291016,1182882
2010-05-21,38.709999084472656,1385539
2010-05-28,39.86000061035156,1164203
2010-06-04,38.459999084472656,974797
2010-06-11,39.130001068115234,793585
2010-06-18,40.52000045776367,828537
2010-06-25,38.7400016784668,916276
2010-07-02,38.029998779296875,926245
2010-07-09,39.22999954223633,510020
2010-07-16,39.83000183105469,677124
2010-07-23,42.70000076293945,999108
2010-07-30,43.06999969482422,1021348
2010-08-06,43.77000045776367,840722
2010-08-13,41.849998474121094,803393
2010-08-20,42.060001373291016,521664
2010-08-27,42.0099983215332,560134
2010-09-03,43.849998474121094,637496
2010-09-10,44.0099983215332,352598
2010-09-17,45.27000045776367,1240022
2010-09-24,44.83000183105469,612057
2010-10-01,45.279998779296875,725276
2010-10-08,46.439998626708984,595718
2010-10-15,46.7599983215332,593307
2010-10-22,45.04999923706055,1161734
2010-10-29,44.880001068115234,876883
2010-11-05,46.41999816894531,683801
2010-11-12,46.0099983215332,668109
2010-11-19,45.58000183105469,581411
2010-11-26,46.349998474121094,345405
2010-12-03,48.220001220703125,731401
2010-12-10,47.060001373291016,1102111
2010-12-17,47.11000061035156,932715
2010-12-24,47.869998931884766,498171
2010-12-31,47.56999969482422,483046
2011-01-07,47.380001068115234,597193
2011-01-14,48.470001220703125,665951
2011-01-21,48.0099983215332,771308
2011-01-28,47.810001373291016,665275
2011-02-04,48.599998474121094,654424
2011-02-11,49.47999954223633,723841
2011-02-18,49.4900016784668,1051386
2011-02-25,48.040000915527344,775043
2011-03-04,47.939998626708984,979127
2011-03-11,48.13999938964844,962869
2011-03-18,48.0,958080
2011-03-25,48.970001220703125,556596
2011-04-01,50.779998779296875,718745
2011-04-08,50.36000061035156,557206
2011-04-15,50.22999954223633,388453
2011-04-22,51.369998931884766,552350
2011-04-29,52.45000076293945,747292
2011-05-06,51.2599983215332,846381
2011-05-13,52.310001373291016,930017
2011-05-20,52.52000045776367,1250964
2011-05-27,52.22999954223633,729208
2011-06-03,51.150001525878906,1063474
2011-06-10,50.400001525878906,828563
2011-06-17,50.47999954223633,1219013
2011-06-24,50.61000061035156,724780
2011-07-01,53.2400016784668,988039
2011-07-08,54.209999084472656,722707
2011-07-15,52.65999984741211,676823
2011-07-22,53.040000915527344,1493687
2011-07-29,51.04999923706055,1218219
2011-08-05,47.7400016784668,1464992
2011-08-12,47.79999923706055,1878202
2011-08-19,46.65999984741211,1495874
2011-08-26,48.5,1244402
2011-09-02,47.9900016784668,1016098
2011-09-09,48.08000183105469,1336758
2011-09-16,49.22999954223633,1056359
2011-09-23,46.150001525878906,1193383
2011-09-30,44.66999816894531,1012779
2011-10-07,45.95000076293945,1141382
2011-10-14,48.63999938964844,938507
2011-10-21,48.4900016784668,656024
2011-10-28,49.130001068115234,924022
2011-11-04,48.7599983215332,1136758
2011-11-11,48.599998474121094,1129452
2011-11-18,48.029998779296875,990810
2011-11-25,46.5099983215332,878606
2011-12-02,50.95000076293945,1431836
2011-12-09,50.72999954223633,998497
2011-12-16,51.18000030517578,1533950
2011-12-23,52.58000183105469,813003
2011-12-30,52.16999816894531,455914
2012-01-06,51.849998474121094,907810
2012-01-13,51.47999954223633,956852
2012-01-20,51.54999923706055,671750
2012-01-27,52.279998779296875,968399
2012-02-03,53.5,1001099
2012-02-10,53.040000915527344,909874
2012-02-17,52.81999969482422,801544
2012-02-24,53.22999954223633,714096
2012-03-02,53.20000076293945,1551458
2012-03-09,53.540000915527344,1390478
2012-03-16,54.7400016784668,1372530
2012-03-23,54.290000915527344,869827
2012-03-30,54.77000045776367,1031176
2012-04-06,54.34000015258789,846468
2012-04-13,54.08000183105469,1252122
2012-04-20,54.88999938964844,1020637
2012-04-27,54.790000915527344,1425969
2012-05-04,53.720001220703125,1344268
2012-05-11,53.38999938964844,952219
2012-05-18,49.70000076293945,1050641
2012-05-25,50.61000061035156,1112807
2012-06-01,50.2599983215332,3360738
2012-06-08,52.400001525878906,939724
2012-06-15,52.27000045776367,856004
2012-06-22,51.720001220703125,1088153
2012-06-29,51.04999923706055,1024281
2012-07-06,51.459999084472656,783472
2012-07-13,49.84000015258789,2100756
2012-07-20,50.11000061035156,839438
2012-07-27,50.650001525878906,1556068
2012-08-03,50.060001373291016,1153308
2012-08-10,49.88999938964844,833027
2012-08-17,50.619998931884766,733664
2012-08-24,50.81999969482422,739654
2012-08-31,50.650001525878906,910396
2012-09-07,51.4900016784668,1469662
2012-09-14,52.459999084472656,868223
2012-09-21,52.66999816894531,1262629
2012-09-28,51.709999084472656,1268481
2012-10-05,52.56999969482422,1097753
2012-10-12,51.22999954223633,722827
2012-10-19,52.34000015258789,638473
2012-10-26,51.650001525878906,691107
2012-11-02,49.4900016784668,1242797
2012-11-09,48.02000045776367,1502211
2012-11-16,46.189998626708984,2412102
2012-11-23,47.619998931884766,912412
2012-11-30,47.66999816894531,1364897
2012-12-07,47.70000076293945,1151128
2012-12-14,46.91999816894531,1139711
2012-12-21,47.7599983215332,2047566
2012-12-28,47.34000015258789,554288
2013-01-04,49.619998931884766,1303245
2013-01-11,51.040000915527344,1344516
2013-01-18,52.33000183105469,782889
2013-01-25,52.029998779296875,843260
2013-02-01,52.22999954223633,1575901
2013-02-08,52.5099983215332,1377485
2013-02-15,53.11000061035156,878399
2013-02-22,52.81999969482422,984852
2013-03-01,53.470001220703125,1217730
2013-03-08,55.25,766775
2013-03-15,55.70000076293945,1268598
2013-03-22,56.2400016784668,912446
2013-03-29,57.349998474121094,741804
2013-04-05,56.09000015258789,947680
2013-04-12,56.900001525878906,708508
2013-04-19,55.08000183105469,895422
2013-04-26,55.38999938964844,871052
2013-05-03,55.9900016784668,1649891
2013-05-10,56.4900016784668,1285528
2013-05-17,57.06999969482422,961905
2013-05-24,56.220001220703125,642825
2013-05-31,56.720001220703125,782884
2013-06-07,57.0,825878
2013-06-14,57.040000915527344,573039
2013-06-21,55.029998779296875,960672
2013-06-28,55.209999084472656,1124200
2013-07-05,56.619998931884766,436379
2013-07-12,59.650001525878906,745761
2013-07-19,59.58000183105469,805882
2013-07-26,57.939998626708984,874470
2013-08-02,60.47999954223633,1801991
2013-08-09,60.119998931884766,677759
2013-08-16,59.290000915527344,476840
2013-08-23,59.84000015258789,552289
2013-08-30,58.810001373291016,698960
2013-09-06,58.5099983215332,785094
2013-09-13,59.0099983215332,829653
2013-09-20,60.2400016784668,1090597
2013-09-27,59.650001525878906,939857
2013-10-04,60.130001068115234,1430646
2013-10-11,61.45000076293945,1142648
2013-10-18,63.189998626708984,644232
2013-10-25,64.27999877929688,576625
2013-11-01,63.88999938964844,1094050
2013-11-08,64.25,837339
2013-11-15,64.94000244140625,728089
2013-11-22,64.19999694824219,1686435
2013-11-29,64.91999816894531,1297761
2013-12-06,64.69000244140625,889386
2013-12-13,63.70000076293945,887718
2013-12-20,65.36000061035156,1108522
2013-12-27,66.72000122070312,500945
2014-01-03,66.8499984741211,836850
2014-01-10,68.05000305175781,2081276
2014-01-17,67.23999786376953,3813937
2014-01-24,64.4800033569336,1409475
2014-01-31,63.79999923706055,1681472
2014-02-07,63.4900016784668,1809056
2014-02-14,64.7699966430664,898934
2014-02-21,64.63999938964844,823230
2014-02-28,66.16999816894531,1019029
2014-03-07,65.7300033569336,952884
2014-03-14,64.51000213623047,832306
2014-03-21,64.75,905944
2014-03-28,64.2699966430664,705102
2014-04-04,66.04000091552734,1159182
2014-04-11,64.72000122070312,909593
2014-04-18,66.56999969482422,993370
2014-04-25,67.13999938964844,940926
2014-05-02,66.68000030517578,1211481
2014-05-09,66.58999633789062,1018614
2014-05-16,66.13999938964844,831032
2014-05-23,65.98999786376953,765353
2014-05-30,66.58999633789062,703743
2014-06-06,67.11000061035156,714142
2014-06-13,66.41000366210938,689546
2014-06-20,66.62999725341797,933317
2014-06-27,67.01000213623047,1051804
2014-07-04,66.97000122070312,673698
2014-07-11,66.3499984741211,838126
2014-07-18,66.05000305175781,1278973
2014-07-25,63.5,1677728
2014-08-01,61.130001068115234,1696692
2014-08-08,62.36000061035156,1324647
2014-08-15,63.29999923706055,1023835
2014-08-22,63.619998931884766,979532
2014-08-29,64.1500015258789,615744
2014-09-05,65.19999694824219,811305
2014-09-12,62.70000076293945,977762
2014-09-19,61.15999984741211,1683251
2014-09-26,61.380001068115234,1567418
2014-10-03,60.11000061035156,1657569
2014-10-10,57.5,1610650
2014-10-17,58.70000076293945,3507336
2014-10-24,61.91999816894531,1717009
2014-10-31,62.2400016784668,2275754
2014-11-07,64.7699966430664,1964904
2014-11-14,64.83000183105469,1209154
2014-11-21,65.0999984741211,1266193
2014-11-28,65.25,576954
2014-12-05,66.26000213623047,1125669
2014-12-12,64.63999938964844,861637
2014-12-19,67.12999725341797,1507428
2014-12-26,67.86000061035156,627108
2015-01-02,66.6500015258789,679413
2015-01-09,65.47000122070312,1673114
2015-01-16,64.47000122070312,1169666
2015-01-23,63.7599983215332,1010066
2015-01-30,63.11000061035156,1801539
2015-02-06,64.33000183105469,2585905
2015-02-13,64.55999755859375,2187769
2015-02-20,66.16999816894531,1121034
2015-02-27,65.87000274658203,1155246
2015-03-06,64.2699966430664,1193632
2015-03-13,63.099998474121094,1615034
2015-03-20,63.22999954223633,1894190
2015-03-27,63.18000030517578,1571349
2015-04-03,63.150001525878906,1363213
2015-04-10,63.4900016784668,1242450
2015-04-17,62.84000015258789,1603079
2015-04-24,63.290000915527344,1277975
2015-05-01,64.05000305175781,2775440
2015-05-08,63.15999984741211,3444881
2015-05-15,65.19999694824219,2465493
2015-05-22,64.5,1444781
2015-05-29,63.77000045776367,1046849
2015-06-05,64.27999877929688,2157903
2015-06-12,64.58000183105469,1437946
2015-06-19,65.29000091552734,1887804
2015-06-26,64.4800033569336,1432851
2015-07-03,63.790000915527344,1373605
2015-07-10,63.68000030517578,1377460
2015-07-17,63.93000030517578,1192571
2015-07-24,61.75,1191352
2015-07-31,67.79000091552734,3162166
2015-08-07,68.79000091552734,1423075
2015-08-14,69.87000274658203,1198505
2015-08-21,67.61000061035156,1196856
2015-08-28,67.70999908447266,1601725
2015-09-04,67.2699966430664,1251854
2015-09-11,67.4000015258789,1435619
2015-09-18,67.1500015258789,1539849
2015-09-25,65.52999877929688,1411753
2015-10-02,67.9800033569336,1762220
2015-10-09,70.26000213623047,1237865
2015-10-16,69.83999633789062,1073701
2015-10-23,71.4000015258789,1127324
2015-10-30,73.55999755859375,2186954
2015-11-06,73.26000213623047,1663009
2015-11-13,71.5199966430664,1554671
2015-11-20,74.29000091552734,846598
2015-11-27,75.01000213623047,795547
2015-12-04,74.3499984741211,833037
2015-12-11,72.86000061035156,1049150
2015-12-18,71.11000061035156,1582291
2015-12-25,73.30000305175781,641993
2016-01-01,72.6500015258789,476909
2016-01-08,69.87999725341797,1888504
2016-01-15,68.06999969482422,1762399
2016-01-22,68.25,1050579
2016-01-29,72.9000015258789,2620715
2016-02-05,71.12000274658203,1691049
2016-02-12,75.30000305175781,2299654
2016-02-19,72.87999725341797,1722064
2016-02-26,73.33000183105469,1240683
2016-03-04,76.0,1255062
2016-03-11,75.77999877929688,1272133
2016-03-18,76.88999938964844,1756191
2016-03-25,77.38999938964844,914381
2016-04-01,79.08999633789062,1806288
2016-04-08,77.36000061035156,1043658
2016-04-15,79.25,1004107
2016-04-22,79.68000030517578,1172021
2016-04-29,76.0,2157862
2016-05-06,76.27999877929688,2418893
2016-05-13,76.97000122070312,1237221
2016-05-20,75.33000183105469,1509600
2016-05-27,77.13999938964844,1038558
2016-06-03,77.19999694824219,830014
2016-06-10,78.19999694824219,881369
2016-06-17,76.3499984741211,1357788
2016-06-24,76.75,1349313
2016-07-01,79.16999816894531,1308089
2016-07-08,79.79000091552734,687215
2016-07-15,79.91999816894531,774948
2016-07-22,80.45999908447266,645134
2016-07-29,78.18000030517578,1711047
2016-08-05,76.58999633789062,1313327
2016-08-12,75.58000183105469,763565
2016-08-19,76.77999877929688,898920
2016-08-26,78.47000122070312,1238561
2016-09-02,79.16000366210938,1104811
2016-09-09,77.45999908447266,1162422
2016-09-16,77.5999984741211,1052088
2016-09-23,78.79000091552734,1365774
2016-09-30,77.41000366210938,1715146
2016-10-07,75.63999938964844,1166891
2016-10-14,76.02999877929688,798260
2016-10-21,77.16000366210938,696397
2016-10-28,73.0199966430664,1156523
2016-11-04,71.41000366210938,1711736
2016-11-11,71.8499984741211,2231973
2016-11-18,73.6500015258789,1141160
2016-11-25,76.06999969482422,952902
2016-12-02,74.3499984741211,1852878
2016-12-09,74.75,2086153
2016-12-16,72.93000030517578,1903584
2016-12-23,73.61000061035156,1284290
2016-12-30,73.44999694824219,772833
2017-01-06,73.5,1395710
2017-01-13,73.5,1101972
2017-01-20,71.63999938964844,1253187
2017-01-27,73.44000244140625,1514942
2017-02-03,73.77999877929688,2062882
2017-02-10,74.79000091552734,2610829
2017-02-17,73.9000015258789,1980437
2017-02-24,74.36000061035156,876290
2017-03-03,76.04000091552734,1639171
2017-03-10,76.79000091552734,1967263
2017-03-17,77.08000183105469,1306384
2017-03-24,76.62000274658203,990517
2017-03-31,76.98999786376953,962365
2017-04-07,76.16000366210938,1625028
2017-04-14,75.80000305175781,907835
2017-04-21,77.98999786376953,1222053
2017-04-28,80.30000305175781,1760059
2017-05-05,81.91000366210938,2712098
2017-05-12,82.43000030517578,1524376
2017-05-19,82.36000061035156,1347016
2017-05-26,84.37000274658203,991604
2017-06-02,86.33000183105469,953200
2017-06-09,85.6500015258789,1321875
2017-06-16,85.94999694824219,1280758
2017-06-23,86.80000305175781,1233453
2017-06-30,86.86000061035156,1099378
2017-07-07,88.08999633789062,1001940
2017-07-14,89.43000030517578,1154769
2017-07-21,89.51000213623047,1567840
2017-07-28,82.30999755859375,2548899
2017-08-04,82.36000061035156,2266521
2017-08-11,82.13999938964844,1004022
2017-08-18,82.1500015258789,999636
2017-08-25,82.38999938964844,1007141
2017-09-01,83.87999725341797,943397
2017-09-08,83.81999969482422,882090
2017-09-15,84.70999908447266,1219961
2017-09-22,85.72000122070312,1015394
2017-09-29,86.30999755859375,1144491
2017-10-06,88.58000183105469,1039707
2017-10-13,88.83999633789062,844119
2017-10-20,89.19999694824219,905873
2017-10-27,87.93000030517578,1576483
2017-11-03,86.94000244140625,1489910
2017-11-10,84.91000366210938,1212613
2017-11-17,85.6500015258789,931524
2017-11-24,86.25,975503
2017-12-01,87.5999984741211,1196234
2017-12-08,87.9000015258789,1307938
2017-12-15,86.9800033569336,1863920
2017-12-22,85.9000015258789,1236576
2017-12-29,86.27999877929688,601194
2018-01-05,86.91000366210938,983249
2018-01-12,86.55999755859375,1275733
2018-01-19,88.61000061035156,902930
2018-01-26,89.13999938964844,1329173
2018-02-02,85.80000305175781,1557267
2018-02-09,82.16000366210938,1808044
2018-02-16,91.83000183105469,2586478
2018-02-23,90.98999786376953,1160548
2018-03-02,89.68000030517578,1356668
2018-03-09,90.87000274658203,1495743
2018-03-16,90.1500015258789,1370224
2018-03-23,86.7699966430664,1146098
2018-03-30,89.83000183105469,1013883
2018-04-06,88.5,1436217
2018-04-13,92.75,1663662
2018-04-20,94.44000244140625,1433898
2018-04-27,93.45999908447266,1714592
2018-05-04,92.26000213623047,2866657
2018-05-11,94.29000091552734,1626151
2018-05-18,93.55999755859375,1656561
2018-05-25,94.08000183105469,764905
2018-06-01,92.7699966430664,793517
2018-06-08,93.66000366210938,1548907
2018-06-15,94.91999816894531,1991472
2018-06-22,92.62999725341797,2013743
2018-06-29,93.37999725341797,1499106
2018-07-06,94.08000183105469,903693
2018-07-13,94.87000274658203,1027697
2018-07-20,95.77999877929688,844125
2018-07-27,102.9000015258789,1411688
2018-08-03,104.0999984741211,2049166
2018-08-10,102.37999725341797,1445491
2018-08-17,102.76000213623047,1113122
2018-08-24,103.80000305175781,763352
2018-08-31,104.70999908447266,975283
2018-09-07,107.9000015258789,1144622
2018-09-14,111.97000122070312,1166870
2018-09-21,110.31999969482422,1649139
2018-09-28,107.73999786376953,1933218
2018-10-05,107.16999816894531,1274530
2018-10-12,101.6500015258789,1610183
2018-10-19,104.31999969482422,1363713
2018-10-26,100.36000061035156,1900665
2018-11-02,103.80000305175781,2358953
2018-11-09,104.29000091552734,1798881
2018-11-16,106.27999877929688,1228030
2018-11-23,103.9000015258789,736461
2018-11-30,104.05000305175781,1341782
2018-12-07,99.7699966430664,1094136
2018-12-14,100.33999633789062,949465
2018-12-21,93.55000305175781,1650230
2018-12-28,92.69999694824219,1467566
2019-01-04,91.06999969482422,1835134
2019-01-11,94.7300033569336,1554846
2019-01-18,97.69000244140625,1114456
2019-01-25,97.38999938964844,821904
2019-02-01,99.55000305175781,1288088
2019-02-08,101.38999938964844,1018417
2019-02-15,101.94000244140625,1168611
2019-02-22,102.05000305175781,1472939
2019-03-01,100.80999755859375,1571283
2019-03-08,100.47000122070312,960334
2019-03-15,103.05000305175781,1087688
2019-03-22,103.83000183105469,910190
2019-03-29,106.38999938964844,1073532
2019-04-05,108.73999786376953,955298
2019-04-12,110.30999755859375,914027
2019-04-19,108.20999908447266,753188
2019-04-26,111.41999816894531,810188
2019-05-03,113.8499984741211,1406766
2019-05-10,113.5999984741211,1076331
2019-05-17,113.77999877929688,779724
2019-05-24,112.93000030517578,716018
2019-05-31,113.2699966430664,823438
2019-06-07,121.91999816894531,1920363
2019-06-14,120.08999633789062,1246140
2019-06-21,119.37999725341797,1623537
2019-06-28,124.33999633789062,1803797
2019-07-05,124.61000061035156,1167856
2019-07-12,123.41000366210938,1071975
2019-07-19,123.4000015258789,1099105
2019-07-26,124.48999786376953,1024370
2019-08-02,118.0199966430664,1971926
2019-08-09,121.08000183105469,1648511
2019-08-16,120.25,1165626
2019-08-23,120.26000213623047,1169929
2019-08-30,122.22000122070312,1035620
2019-09-06,120.87999725341797,895810
2019-09-13,118.4000015258789,1156152
2019-09-20,118.05000305175781,1500431
2019-09-27,118.66999816894531,866006
2019-10-04,117.33000183105469,1012860
2019-10-11,116.33000183105469,902743
2019-10-18,117.77999877929688,901342
2019-10-25,117.87999725341797,581844
2019-11-01,110.79000091552734,1344496
2019-11-08,109.0,1812610
2019-11-15,109.95999908447266,1283543
2019-11-22,110.12000274658203,1968047
2019-11-29,112.12000274658203,724576
2019-12-06,112.08000183105469,1392633
2019-12-13,113.97000122070312,1404890
2019-12-20,114.95999908447266,1292779
2019-12-27,115.0199966430664,406731
2020-01-03,114.04000091552734,1087923
2020-01-10,115.79000091552734,1373924
2020-01-17,117.31999969482422,1028593
2020-01-24,117.12000274658203,845208
2020-01-31,115.51000213623047,1082867
2020-02-07,116.69999694824219,1165379
2020-02-14,116.66999816894531,1205465
2020-02-21,111.9800033569336,1659564
2020-02-28,101.06999969482422,2955437
2020-03-06,107.30000305175781,1877257
2020-03-13,96.38999938964844,3264280
2020-03-20,92.51000213623047,3107070
2020-03-27,94.0,2739594
2020-04-03,94.19000244140625,2089181
2020-04-10,107.2699966430664,1609065
2020-04-17,102.94000244140625,1465221
2020-04-24,104.12000274658203,2492869
2020-05-01,106.13999938964844,2205664
2020-05-08,107.52999877929688,1435712
2020-05-15,101.5,1566950
2020-05-22,105.0999984741211,1050499
2020-05-29,111.38999938964844,1071533
2020-06-05,113.4000015258789,1116507
2020-06-12,105.36000061035156,1527612
2020-06-19,107.5999984741211,1219146
2020-06-26,107.72000122070312,2091943
2020-07-03,114.97000122070312,1130430
2020-07-10,114.94999694824219,1434973
2020-07-17,119.4000015258789,1311464
2020-07-24,118.8499984741211,1523453
2020-07-31,115.19999694824219,1769529
2020-08-07,119.25,1139594
2020-08-14,118.48999786376953,939065
2020-08-21,117.80000305175781,836188
2020-08-28,118.12999725341797,963327
2020-09-04,118.72000122070312,921608
2020-09-11,118.36000061035156,696623
2020-09-18,115.04000091552734,1396952
2020-09-25,112.0999984741211,1244546
2020-10-02,112.8499984741211,993328
2020-10-09,116.80999755859375,835225
2020-10-16,116.3499984741211,610593
2020-10-23,118.3499984741211,709737
2020-10-30,114.08999633789062,1066636
2020-11-06,123.5999984741211,1014427
2020-11-13,125.06999969482422,1109965
2020-11-20,127.80999755859375,1022910
2020-11-27,127.23999786376953,623351
2020-12-04,127.68000030517578,787596
2020-12-11,130.4499969482422,834848
2020-12-18,134.10000610351562,1583445
2020-12-25,135.6999969482422,744864
2021-01-01,136.88999938964844,463619
2021-01-08,139.07000732421875,1198558
2021-01-15,138.8300018310547,890089
2021-01-22,138.19000244140625,912599
2021-01-29,132.97000122070312,1043415
2021-02-05,140.66000366210938,941089
2021-02-12,144.6300048828125,806336
2021-02-19,132.24000549316406,1084939
2021-02-26,130.07000732421875,1815971
2021-03-05,134.08999633789062,1569458
2021-03-12,140.77000427246094,1020891
2021-03-19,139.30999755859375,1606806
2021-03-26,144.82000732421875,1431055
2021-04-02,143.8699951171875,1156887
2021-04-09,145.1999969482422,900166
2021-04-16,148.0800018310547,954151
2021-04-23,151.4499969482422,1051920
2021-04-30,150.80999755859375,1192741
2021-05-07,157.55999755859375,997177
2021-05-14,153.5399932861328,1172964
2021-05-21,149.6300048828125,728899
2021-05-28,147.30999755859375,775232
2021-06-04,145.55999755859375,832207
2021-06-11,145.8300018310547,910861
2021-06-18,140.10000610351562,1044438
2021-06-25,140.9199981689453,1442172
2021-07-02,140.41000366210938,904391
2021-07-09,141.17999267578125,877274
2021-07-16,139.0399932861328,910872
2021-07-23,136.24000549316406,1123803
2021-07-30,128.9199981689453,1664979
2021-08-06,128.42999267578125,1509038
2021-08-13,133.0500030517578,1225618
2021-08-20,133.52000427246094,642813
2021-08-27,134.52999877929688,627223
2021-09-03,135.14999389648438,690391
2021-09-10,125.83999633789062,1025502
2021-09-17,121.2300033569336,1421906
2021-09-24,120.36000061035156,1113175
2021-10-01,121.58000183105469,1249595
2021-10-08,124.51000213623047,1202527
2021-10-15,128.22000122070312,957583
2021-10-22,127.7699966430664,815627
2021-10-29,120.77999877929688,1522237
2021-11-05,131.5,1809354
2021-11-12,131.49000549316406,881963
2021-11-19,130.14999389648438,1332607
2021-11-26,126.61000061035156,817671
2021-12-03,118.80000305175781,2554480
2021-12-10,119.73999786376953,1565694
