117.98,21658944,114.02,99.59432258064517,1.0164673408823186,0.19802549455752128,1068.59,154684992,1039.38,954.0973763440861,1.0102673962548117,0.049233045345683735,734.16,708367552,714.83,669.5982795698925,1.0079821942241556,0.04937378118949254,1962.87,1949.44,1876.2554623655915,1.0039344698201202
115.84,16520833,117.98,100.99898924731181,1.014103882934986,0.21884495775870483,1046.03,143476000,1068.59,961.9736774193549,1.0082552381659922,0.033713860273169693,727.52,708367552,734.16,674.2822150537634,1.0069951426501267,0.0640212324509224,1960.96,1962.87,1883.1453548387096,1.003672150520714
116.75,9466454,117.98,102.39066666666668,1.0137791222439576,0.26095852211743,1047.84,87363000,1068.59,969.61511827957,1.00794350307039,0.06265391045376245,730.37,708367552,734.16,678.9460215053764,1.0069166980049165,0.05403875810083569,1985.44,1962.87,1891.2809462365587,1.0043202142505594
113.65,10719658,117.98,103.50335483870965,1.0108670859197093,0.23918725467482305,1021.59,114233000,1068.59,975.1904946236559,1.0057500922159492,0.02100923323453019,717.24,708367552,734.16,682.5531827956988,1.0053128837581589,0.04242360553196867,1967.57,1985.44,1897.8757849462365,1.0034869693594708
116.04,14400175,117.98,104.69681720430107,1.011530663594926,0.20918012736734037,1025.62,135447008,1068.59,980.6747956989246,1.0056238254018106,0.0039930374394177015,721.91,708367552,734.16,686.2596129032258,1.0054302436805667,0.04351112221871989,1978.22,1985.44,1904.7442795698926,1.0036190432894168
114.82,12662755,117.98,105.7432258064516,1.0099946553304349,0.19199615379218216,1035.24,104809000,1068.59,986.4625161290321,1.005901773406935,0.009899155229353696,727.81,708367552,734.16,690.1663225806451,1.0056927576735748,0.043671904552813334,1978.34,1985.44,1911.2766451612902,1.0034295236696407
108.04,15405001,117.98,106.28718279569893,1.005144130842414,0.1745332304618401,993.3,134746000,1068.59,989.2282365591398,1.002803675137055,-0.0013943042740545142,697.87,708367552,734.16,691.9761720430107,1.0026223381280013,0.036613736278834574,1925.15,1985.44,1914.0829032258064,1.0014682636716252
107.78,18196948,117.98,106.75896774193549,1.0044387755308504,0.14101373154485408,1006.48,140008992,1068.59,992.5843440860216,1.00339265237571,0.03029274772579238,703.5,708367552,734.16,694.0280860215054,1.0029652957159443,0.04765787833325086,1931.59,1985.44,1917.1029677419356,1.0015778128058297
106.09,16412622,117.98,107.069311827957,1.0029069603480214,0.10247571362708596,998.26,119387000,1068.59,995.1259139784945,1.0025605581103672,0.01735640667047189,700.15,708367552,734.16,695.731247311828,1.0024540235829447,0.039974801122663495,1955.06,1985.44,1921.4453548387096,1.0022650776561515
106.27,12823820,117.98,107.34479569892471,1.002572948926863,0.10872535172340925,1010.42,105330000,1068.59,998.1666021505375,1.0030555813383317,0.010168001506993152,704.06,708367552,734.16,697.5457419354838,1.0026080395708352,0.025564011027638278,1988.4,1985.44,1927.6884731182795,1.0032491781584358
109.88,10780504,117.98,107.80264516129033,1.004265222728168,0.11627590647955954,1037.82,90548000,1068.59,1002.6510967741934,1.0044927315880878,0.06520848479621377,715.72,708367552,734.16,699.9309677419354,1.0034194543283046,0.048612268327660635,2003.37,1988.4,1934.4713548387099,1.0035186607250175
105.18,11408719,117.98,107.89864516129032,1.000890516182199,0.01365406260137303,1016.54,92122000,1068.59,1005.3697634408602,1.0027114782753577,0.027611394493080033,704.64,708367552,734.16,701.3749462365593,1.0020630298717632,0.031856530238747904,2007.71,2003.37,1941.059440860215,1.0034056260409472
101.32,21199592,117.98,107.70920430107526,0.9982442702600031,0.03421351204917,977.54,117842000,1068.59,1005.2416774193548,0.9998725980965779,0.04123241712537529,678.33,708367552,734.16,700.9248817204301,0.999358311102294,0.0017743774754745978,1985.54,2007.71,1945.7641075268818,1.002423762285498
104.37,20213432,117.98,107.6889247311828,0.9998117192488417,0.056276824360863786,985.14,144884000,1068.59,1005.3940430107526,1.0001515711045617,0.047871929139239544,684.82,708367552,734.16,700.7833763440859,0.9997981162032701,-0.0074962251303618554,2010.4,2007.71,1951.7567096774196,1.0030798194536308
101.88,21519038,117.98,107.47494623655915,0.9980129944174131,0.0023556973658018787,958.49,139250000,1068.59,1003.606129032258,0.9982216783648921,0.02282369712022092,671.95,708367552,734.16,699.6932473118279,0.9984444136818069,-0.013744497969046199,1982.85,2010.4,1955.5973763440861,1.001967799904375
96.57,26399210,117.98,106.90296774193548,0.9946780294882428,0.012684068089151124,910.1,172316992,1068.59,998.5554193548386,0.9949674383891123,-0.054382253648741496,646.26,708367552,734.16,696.8734623655913,0.9959699697587907,-0.03831888838827324,1967.9,2010.4,1958.2081505376343,1.0013350264349552
89.83,37959656,117.98,105.89268817204301,0.9905495647947651,0.022347093702852816,847.0,202256992,1068.59,989.4254193548386,0.9908567918985419,-0.13245682739965625,613.73,708367552,734.16,691.9418494623657,0.9929232304434654,-0.05955000944042288,1906.13,2010.4,1956.6405161290324,0.9991994546605418
91.22,51566120,117.98,104.97886021505376,0.9913702449832554,0.03445869416109493,833.36,276956992,1068.59,979.523935483871,0.9899926930546984,-0.17449886313939467,606.9,708367552,734.16,686.6023870967742,0.9922833654739337,-0.05803662550125133,1886.76,2010.4,1953.6834193548389,0.9984886867312531
92.1,33030696,117.98,104.13169892473118,0.9919301725262865,-0.0008553392127919057,860.92,174448992,1068.59,971.5615913978494,0.9918712102914684,-0.18384609394444973,628.23,708367552,734.16,682.7036989247313,0.9943217672333937,-0.09548220447093625,1964.58,2010.4,1955.7034408602153,1.0010339553918328
95.05,28727150,117.98,103.48879569892473,0.9938260564991727,0.017287581401648655,883.47,176383008,1068.59,965.1825376344085,0.9934342260748874,-0.19361458254489605,641.32,708367552,734.16,679.7027526881719,0.9956043211113608,-0.10957846623600753,2018.05,2010.4,1960.94311827957,1.0026791778906161
99.55,41827928,117.98,103.14636559139787,0.9966911383477388,0.04426200552337267,893.4,208486000,1068.59,959.5753333333334,0.9941905245044964,-0.17728789635106001,642.8,708367552,734.16,676.8363870967743,0.9957829130747795,-0.12833755462107432,2031.92,2018.05,1966.7486881720429,1.0029606008651422
98.16,23510310,117.98,102.71227956989247,0.9957915529159314,0.06745867497239233,869.79,171284000,1068.59,952.5144516129031,0.9926416598310187,-0.22435247403676428,629.88,708367552,734.16,673.149376344086,0.9945525819489355,-0.16633083611247512,2039.82,2031.92,1972.598924731183,1.00297457249842
101.74,23100688,117.98,102.51838709677419,0.9981122756312079,0.09881580190515193,903.48,176903008,1068.59,947.8567311827957,0.9951100789891214,-0.20125991763007667,645.6,708367552,734.16,670.5824516129032,0.9961866937393244,-0.160229044710255,2063.5,2039.82,1979.600623655914,1.003549479236224
86.72,24521312,117.98,101.34965591397848,0.9885997895997675,0.08776805374373053,790.73,157915008,1068.59,936.074559139785,0.987569669913819,-0.3196610197449359,584.58,708367552,734.16,664.1562150537636,0.9904169330055043,-0.2469793125569808,2067.56,2063.5,1986.4339354838712,1.0034518638488492
90.75,39152160,117.98,100.46316129032257,0.9912531067258055,0.08247326607436567,786.85,286137984,1068.59,924.4521505376346,0.9875838858254721,-0.2966969805607421,591.53,708367552,734.16,658.3965376344087,0.9913278272659262,-0.24170702424276025,2075.37,2067.56,1993.3702150537636,1.0034918249461957
86.37,38111516,117.98,99.31888172043008,0.9886099585639585,0.10344206941206435,719.5,270424000,1068.59,908.8950107526881,0.9831715034943681,-0.35756116982384745,543.9,708367552,734.16,649.7657204301075,0.9868911564521415,-0.267756917600532,2002.33,2075.37,1995.170817204301,1.000903295402399
95.02,42191376,117.98,98.76735483870968,0.9944469080585011,0.09446068909815031,802.24,365367008,1068.59,899.2218709677419,0.9893572528504304,-0.3018831190621486,596.85,708367552,734.16,644.8461505376345,0.9924287020109085,-0.2206081024404456,2070.65,2075.37,2001.1114838709677,1.002977522834356
93.82,16224101,117.98,98.1576559139785,0.9938269185630532,0.09813284209744866,792.01,140803008,1068.59,889.2688387096774,0.9889315055834296,-0.3338791846851695,593.19,708367552,734.16,639.8841075268818,0.9923050746187823,-0.23047575599741565,2088.77,2075.37,2007.8553333333332,1.0033700518520439
92.24,13569000,117.98,97.47178494623653,0.9930125575905863,0.06744279305867318,788.01,136122000,1068.59,879.5142365591395,0.9890307613109531,-0.3338794939355496,589.12,708367552,734.16,634.8751182795697,0.9921720367979264,-0.21793678334178535,2058.2,2088.77,2012.2716559139783,1.0021995222999027
87.46,30150844,117.98,96.51425806451614,0.9901763686563395,0.04522424043432394,750.26,245306000,1068.59,867.8124301075267,0.9866951483384817,-0.45576439593744567,567.92,708367552,734.16,628.7435698924731,0.9903421189292907,-0.2616336258080739,2044.81,2088.77,2015.5902150537634,1.001649160604152
90.31,27379820,117.98,95.79772043010753,0.9925758364745484,0.07498874522331234,737.84,274444000,1068.59,855.9310967741937,0.9863088693810703,-0.49411270175807787,559.36,708367552,734.16,622.3756989247312,0.9898720698347165,-0.26690509305251997,2019.42,2088.77,2017.0370537634408,1.0007178238408143
90.79,19786742,117.98,95.1716559139785,0.9934647242823925,0.056020978826653356,761.23,174870000,1068.59,846.2700860215056,0.9887128639336761,-0.465922243546529,568.28,708367552,734.16,616.9592258064517,0.9912971005654022,-0.2652150290360157,2051.82,2088.77,2020.452602150538,1.0016933493515772
89.03,27146312,117.98,94.48591397849464,0.9927946831554169,0.033565164990781104,763.88,233690000,1068.59,837.3925161290323,0.9895097675799831,-0.4445005012957717,557.95,708367552,734.16,611.218752688172,0.9906955388976052,-0.2408821447488234,1994.99,2088.77,2020.0063010752688,0.9997791083667124
95.79,35285480,117.98,94.29591397849464,0.9979891182505443,0.045485965914946025,814.58,280385984,1068.59,832.3965806451614,0.994033938221749,-0.35049321099258823,587.98,708367552,734.16,607.7864946236559,0.9943845668192921,-0.22489301112514604,2055.47,2088.77,2023.4413978494624,1.0017005376529593
96.92,22993484,117.98,94.21722580645162,0.9991655187513113,0.017440966640126176,838.74,214096000,1068.59,829.4045376344088,0.9964055078068275,-0.3144493362632963,603.4,708367552,734.16,605.6270537634409,0.9964470404010011,-0.2242005603927968,2096.99,2088.77,2029.3661720430105,1.002928068092234
91.08,35388512,117.98,93.80288172043012,0.9956022470150768,-0.006341109918756915,827.76,188724992,1068.59,826.106,0.9960230050780566,-0.33323614100668386,589.07,708367552,734.16,602.7979569892472,0.9953286486186286,-0.25732906139376144,2110.3,2096.99,2035.8942365591397,1.0032167997111912
89.72,24768768,117.98,93.35184946236559,0.9951917014723621,0.011526498178298095,813.42,247324000,1068.59,822.3284946236558,0.9954273357458435,-0.31331404573538646,577.51,708367552,734.16,599.5214193548387,0.9945644513283132,-0.2656292233939157,2104.5,2110.3,2041.764322580645,1.002883296153648
88.57,20405692,117.98,92.86602150537632,0.994795732920266,0.039535419315642195,787.3,222779008,1068.59,817.2526666666665,0.9938274935257931,-0.3060797870825689,560.66,708367552,734.16,595.4166236559139,0.9931532126019083,-0.275350238783989,2071.26,2110.3,2045.1041935483872,1.0016357769262618
85.39,19746992,117.98,92.2163440860215,0.9930041428627668,0.03715680384255071,766.39,216976000,1068.59,811.2991612903227,0.9927152206176011,-0.3210939254797558,544.87,708367552,734.16,590.6003010752688,0.9919110041787674,-0.2720812934582656,2053.4,2110.3,2046.9914408602153,1.0009228123035403
90.68,23677864,117.98,91.95247311827957,0.9971385661581229,0.06307235601363892,798.46,292817984,1068.59,807.9133333333334,0.9958266591184387,-0.3431455492687123,563.3,708367552,734.16,587.3069462365592,0.9944237162888104,-0.26012529775787374,2108.1,2110.3,2052.19623655914,1.0025426563077064
90.56,16942972,117.98,91.7143870967742,0.9974107708750899,0.05809485477655185,795.05,226718000,1068.59,804.7633333333333,0.9961010669461244,-0.33091717836349965,559.23,708367552,734.16,584.0537204301077,0.9944607741704775,-0.24742346848851493,2061.02,2110.3,2054.106193548387,1.0009306892563303
92.71,15465593,117.98,91.65655913978495,0.9993694778014681,0.08080388218755297,813.88,168524000,1068.59,803.3502580645162,0.9982441107710956,-0.29407037773506384,567.79,708367552,734.16,581.6892903225805,0.9959516907010096,-0.22372388178528624,2066.96,2110.3,2056.275397849463,1.0010560331826508
96.59,19256698,117.98,91.87587096774192,1.0023927565033561,0.09254326512192634,841.44,210512000,1068.59,804.1510752688173,1.0009968468874715,-0.2673607440381156,585.36,708367552,734.16,580.7527096774194,0.9983898953260051,-0.19574147195407632,2102.06,2110.3,2060.581698924731,1.0020942238961628
97.23,19430850,117.98,92.14664516129032,1.002947174167671,0.059804816269972916,858.83,215644992,1068.59,806.3665161290322,1.0027550057798211,-0.25384580542488955,597.81,708367552,734.16,580.8192903225806,1.0001146454317849,-0.16226220859555773,2081.18,2110.3,2063.2903225806454,1.001314494667854
96.72,15115062,117.98,92.39987096774192,1.0027480740726735,0.05535224163262009,856.89,186506000,1068.59,808.728430107527,1.0029290824101094,-0.24836949240200779,597.98,708367552,734.16,581.0839569892474,1.0004556781619973,-0.1780857222436243,2117.69,2110.3,2068.2022150537637,1.0023806114046883
98.9,17666436,117.98,92.80483870967743,1.0043827738902027,0.0710345091557465,867.41,208924992,1068.59,811.9875483870967,1.0040299291557444,-0.1518687653651012,604.75,708367552,734.16,581.9444731182797,1.0014808808928246,-0.13557112152633866,2108.29,2117.69,2072.217677419355,1.0019415230949682
93.5,34358368,117.98,92.85640860215054,1.0005556810742857,0.04032366134063281,847.45,251140000,1068.59,814.0507311827956,1.0025409044754408,-0.09659778711378375,597.81,708367552,734.16,582.4465161290323,1.0008626991645138,-0.13609487656779207,2116.1,2117.69,2076.4350967741934,1.0020352202381029
90.47,17818812,117.98,92.70460215053762,0.9983651483629596,-0.0003501330623500998,826.8,206964992,1068.59,814.7806881720429,1.000896697172898,-0.09551767945098544,587.93,708367552,734.16,582.3453763440859,0.9998263535240651,-0.15632345990537888,2122.73,2117.69,2080.6287096774195,1.0020196214703465
90.26,17354392,117.98,92.54086021505378,0.9982337237668314,0.020629437498445702,825.96,180632992,1068.59,815.470559139785,1.00084669528593,-0.0821545960910165,583.44,708367552,734.16,581.9953548387097,0.9993989451627938,-0.15349123021720734,2126.06,2122.73,2084.5296989247313,1.0018749088817085
88.69,14677292,117.98,92.27978494623656,0.9971788108711058,0.021681688699098034,805.2,155630000,1068.59,814.8962580645161,0.9992957427232264,-0.09692579406908097,571.41,708367552,734.16,580.9655268817205,0.9982305220335057,-0.15328000192450142,2107.39,2126.06,2086.8789032258064,1.0011269708952992
89.68,16830648,117.98,92.09625806451614,0.9980111908385206,0.007692884152853963,797.95,180728992,1068.59,814.0225376344085,0.9989278139131688,-0.0894855821886823,565.88,708367552,734.16,579.7292688172043,0.9978720629584484,-0.14964054401153948,2092.83,2126.06,2088.0966236559143,1.0005835127415519
89.53,13096489,117.98,91.92427956989248,0.9981326223427756,-0.00325357108512625,796.15,185924000,1068.59,813.2379569892472,0.9990361683996596,-0.07179047489885382,560.6,708367552,734.16,578.3177849462365,0.9975652706411605,-0.1366042977815225,2094.11,2126.06,2089.265935483871,1.0005599893293777
88.27,17980880,117.98,91.68956989247312,0.9974467063705307,-0.0038157048452250875,787.31,217439008,1068.59,812.0414193548387,0.9985286746343736,-0.1133590718708477,558.01,708367552,734.16,576.8881935483871,0.9975280175795003,-0.15820192545298895,2109.99,2126.06,2091.3430107526883,1.0009941650957594
88.06,25449232,117.98,91.47027956989248,0.9976083394999257,0.02190176583989878,785.63,255379008,1068.59,810.9863225806452,0.998700686012997,0.04892764234193181,557.32,708367552,734.16,575.6024516129031,0.997771245884622,-0.06304241811805888,2101.49,2126.06,2092.7717204301075,1.0006831541598262
85.67,15308126,117.98,91.0939139784946,0.995885378363687,-0.03174208420050584,767.78,213511008,1068.59,808.7905806451614,0.9972925043563045,0.021781345588235856,546.28,708367552,734.16,573.6630752688172,0.9966307017305929,-0.07717593979023529,2076.78,2126.06,2092.5332688172043,0.9998860594251273
84.54,20000520,117.98,90.65556989247311,0.9951879981123111,-0.06613579294215799,751.84,231620992,1068.59,805.6074623655915,0.9960643479835894,0.07465884446415383,538.25,708367552,734.16,571.3029462365591,0.9958858620434091,-0.04748971538982594,2076.62,2126.06,2092.2814623655913,0.9998796643019419
80.5,21112206,117.98,89.96051612903227,0.9923330274767976,-0.07292112342229795,738.15,245083008,1068.59,801.4715698924732,0.9948661194609921,-0.04201804861641645,531.86,708367552,734.16,568.5427096774195,0.9951685238500473,-0.13592814881578064,2126.64,2126.06,2095.0969892473117,1.0013456731000892
75.16,33268504,117.98,88.95217204301078,0.9887912594390276,-0.07369105496249306,692.85,288612000,1068.59,794.5509247311828,0.9913650771639737,-0.07896433118960777,510.24,708367552,734.16,564.5273978494623,0.9929375370405588,-0.13547094572251572,2079.65,2126.64,2094.7604946236556,0.9998393894767722
77.19,28599080,117.98,88.11492473118278,0.9905876687145632,-0.044292268414933056,694.34,286611008,1068.59,787.9396559139785,0.9916792384082354,-0.08270296936444621,508.05,708367552,734.16,560.5491827956988,0.9929530168616824,-0.15978674727567943,2103.84,2126.64,2096.0042580645163,1.000593749712224
73.76,29200828,117.98,87.08875268817206,0.9883541630871124,-0.056344473652060856,675.01,306672992,1068.59,780.2827311827956,0.9902823462765036,-0.037649549823319806,490.35,708367552,734.16,555.6033763440861,0.9911768554777908,-0.15260718730316747,2077.57,2126.64,2095.4550322580644,0.9997379653193267
79.93,31039604,117.98,86.49010752688173,0.9931260335828459,-0.06506212599384043,701.04,269743008,1068.59,774.466989247312,0.9925466222651528,0.014658500010003683,506.05,708367552,734.16,551.8372903225807,0.9932216286260055,-0.1310185735594901,2091.54,2126.64,2095.7366451612907,1.0001343922436372
74.86,27969396,117.98,85.58668817204303,0.9895546510384681,-0.013669066441832745,638.07,251010000,1068.59,764.6678064516128,0.9873471911240236,-0.06390627489425438,462.29,708367552,734.16,545.3626236559139,0.9882670729575345,-0.14706713997734067,1970.89,2126.64,2088.0792903225806,0.9963462227678322
77.31,37125952,117.98,84.87559139784948,0.991691502622883,0.013944674207137742,652.67,380388000,1068.59,756.0754193548388,0.9887632419930866,-0.03813021566972474,479.16,708367552,734.16,540.2042795698925,0.9905414418548859,-0.13814568582389208,1988.87,2126.64,2081.755978494624,0.9969717089493378
76.89,29526280,117.98,84.16260215053762,0.9915995961198107,0.019050287372639918,638.34,347788000,1068.59,746.797677419355,0.9877290787426993,-0.0769546248179448,464.18,708367552,734.16,534.2489247311829,0.9889757355431334,-0.14523785003280298,1921.22,2126.64,2071.081311827957,0.9948722776459199
77.15,20969448,117.98,83.50703225806451,0.9922106746259993,0.037009774926131556,636.61,235607008,1068.59,737.7873333333333,0.9879346918737644,-0.11839273646349091,460.95,708367552,734.16,528.3514193548388,0.988961128224429,-0.17125263535119606,1961.05,2126.64,2063.2650322580644,0.9962259909713569
76.26,22898260,117.98,82.83655913978495,0.9919710580037431,0.06875396087770203,636.16,376432992,1068.59,729.1826451612905,0.9883371700986424,-0.13768124282351935,462.41,708367552,734.16,522.8544516129033,0.98959600080445,-0.14286127334693666,1958.03,2126.64,2055.546258064516,0.996258951674715
72.79,18921918,117.98,81.97408602150537,0.9895882551468105,0.047108668163777345,621.61,223007008,1068.59,720.0512903225806,0.9874772734934056,-0.15079101007877838,456.85,708367552,734.16,517.2711612903227,0.9893215209216307,-0.12665062027479457,1931.34,2126.64,2046.4330107526885,0.9955665082816435
77.06,24881380,117.98,81.4235053763441,0.9932834793056816,0.04652285654615729,648.36,266808000,1068.59,713.0582365591397,0.9902881171696699,-0.1387234909911509,469.69,708367552,734.16,512.7757419354839,0.9913093563081595,-0.10436772976644715,1951.36,2126.64,2038.98376344086,0.9963598870460516
87.3,33762668,117.98,81.55832258064517,1.001655752889512,0.0978125757478463,708.57,317403008,1068.59,710.2484946236559,0.9960595898182985,-0.05179757681811514,506.18,708367552,734.16,510.8301505376345,0.9962057655252846,-0.052253502094406046,2014.89,2126.64,2035.8910752688173,0.9984832207948416
87.5,21474732,117.98,81.70193548387097,1.0017608614140365,0.07870063303707897,707.62,226956992,1068.59,707.501806451613,0.9961327786080021,-0.0573486738658231,509.95,708367552,734.16,509.21098924731194,0.9968303333532321,-0.05913742983504411,2033.11,2126.64,2034.0566881720433,0.9990989758150338
85.43,16393275,117.98,81.71883870967743,1.0002068889274942,0.08402287158640376,683.21,214306000,1068.59,703.3756344086022,0.9941679696003816,-0.12368086115664667,504.85,708367552,734.16,507.3775268817204,0.9963994053460989,-0.10409667769191067,2075.15,2126.64,2035.095827956989,1.00051087061191
85.85,18619926,117.98,81.77387096774194,1.000673434166876,0.08278569388258583,686.28,261092000,1068.59,699.6880430107528,0.9947572943709517,-0.12749654021605195,502.11,708367552,734.16,505.48423655913973,0.9962684781602043,-0.12167571907101404,2079.36,2126.64,2036.376193548387,1.0006291426545173
85.27,22326154,117.98,81.80623655913978,1.0003957938032626,0.03465043685629787,713.67,257014000,1068.59,698.0419569892473,0.9976474000978744,-0.11901258130645054,514.21,708367552,734.16,504.51283870967734,0.9980782826066451,-0.12018856205056971,2099.2,2126.64,2038.909892473118,1.0012442194780897
82.25,17853592,117.98,81.66810752688173,0.9983115097568608,0.0583492181634051,676.4,226331008,1068.59,694.266129032258,0.9945908295064742,-0.16185805681523324,483.52,708367552,734.16,501.71445161290325,0.9944532886339797,-0.16324506978396014,2023.04,2126.64,2036.5361935483872,0.9988357999863097
82.63,15322376,117.98,81.58670967741935,0.9990033092240372,0.05781345023250006,682.52,219536000,1068.59,691.2774623655913,0.9956952146422112,-0.18807723648545704,489.86,708367552,734.16,499.57088172043007,0.9957275101692167,-0.16734121801304536,2089.17,2126.64,2038.5539784946236,1.0009907925784125
82.02,11623384,117.98,81.49625806451611,0.9988913437830639,0.03477325761201444,689.2,145772992,1068.59,689.0947526881721,0.9968424984232094,-0.223801314074204,496.34,708367552,734.16,498.07789247311825,0.9970114566281961,-0.17064105660837692,2090.11,2126.64,2040.693741935484,1.0010496476735145
80.49,20390206,117.98,81.34339784946236,0.9981243284209106,0.0878896582796519,655.05,262622000,1068.59,685.0920645161289,0.9941913820175982,-0.2313774397351528,473.94,708367552,734.16,495.3728817204301,0.994569100950743,-0.19567093133166535,2091.69,2126.64,2042.9745376344085,1.0011176570261646
74.89,27063684,117.98,80.8572258064516,0.9940232144726668,0.10133683827866824,600.63,281423008,1068.59,677.9921720430109,0.9896365863205079,-0.2524015529427741,443.14,708367552,734.16,490.94716129032264,0.9910658806862077,-0.1942811597214742,2012.37,2126.64,2040.1904086021507,0.9986372179481583
71.43,29260672,117.98,80.18133333333333,0.991640914384867,0.1006206133674431,570.54,385540000,1068.59,669.437376344086,0.9873821615474608,-0.31486908091785093,438.48,708367552,734.16,486.53217204301075,0.9910072007836683,-0.19177511116452572,2005.55,2126.64,2037.2036129032256,0.9985360211055146
73.42,17459084,117.98,79.67432258064515,0.9936766984083389,0.07839855013894625,603.44,219959008,1068.59,663.5544516129032,0.9912121358336601,-0.2909565334355908,458.67,708367552,734.16,483.73150537634416,0.9942436146516145,-0.1752836557344657,2060.99,2126.64,2038.052752688172,1.000416816355306
70.79,13638464,117.98,79.03047311827956,0.9919189841656464,0.054829937765926595,586.12,161459008,1068.59,656.9879999999999,0.9901041254460095,-0.33190269974866893,448.44,708367552,734.16,480.5132903225807,0.9933471047099575,-0.1841744539383764,2043.94,2126.64,2037.9016774193547,0.999925872738761
65.52,25716664,117.98,78.08724731182795,0.9880650365708941,0.05634600879516094,537.78,299639008,1068.59,647.7583870967741,0.9859516263566064,-0.3545813647466467,417.77,708367552,734.16,475.5689247311829,0.9897102417540241,-0.17260725844359082,1922.03,2126.64,2029.9905806451613,0.9961180184197055
62.97,33232090,117.98,77.03113978494623,0.9864752880497332,0.07979161784151156,498.83,376960000,1068.59,636.5715053763442,0.9827298543048297,-0.35531643676005487,409.2,708367552,734.16,470.3788172043011,0.9890865292979024,-0.15783569086094684,1880.33,2126.64,2019.759225806452,0.9949599003383268
66.02,30329800,117.98,76.22621505376344,0.989550657910165,0.09197645422226508,516.74,357748992,1068.59,627.160494623656,0.9852160979980962,-0.36715849552152746,417.03,708367552,734.16,466.0138924731183,0.9907204054019147,-0.1591263236977155,1906.9,2126.64,2011.7359569892471,0.9960276112545042
71.02,32450300,117.98,75.79126881720431,0.9942940071699434,0.1219044079197098,542.89,379379008,1068.59,620.0148387096775,0.9886063360571422,-0.3165483552473618,434.67,708367552,734.16,463.08873118279575,0.9937230169796037,-0.1385631348420494,1940.24,2126.64,2006.2821290322581,0.9972889941455582
67.06,26022640,117.98,75.1323440860215,0.9913060601641065,0.13593986695546967,494.18,361873984,1068.59,610.21023655914,0.9841865040344162,-0.3168557811529379,420.11,708367552,734.16,459.4642365591397,0.9921732178314973,-0.12483045703493045,1880.05,2126.64,1997.2387096774194,0.9954924488316103
67.7,27849220,117.98,74.55230107526883,0.9922797163084841,0.1931850778532701,478.18,414704992,1068.59,599.9274838709678,0.9831488361353052,-0.2786983080259624,416.7,708367552,734.16,455.8738064516129,0.9921856157197021,-0.09338993975654053,1864.78,2126.64,1987.6328602150538,0.9951904349661252
69.71,17279236,117.98,74.12946236559141,0.9943282943171597,0.23287880277001038,481.26,368804000,1068.59,590.4025161290323,0.9841231348821083,-0.2676310762241777,426.77,708367552,734.16,453.1807096774194,0.9940924511650366,-0.08575447063032093,1917.78,2126.64,1982.0095053763441,0.9971708281990763
67.5,29212324,117.98,73.5757634408602,0.9925306496626067,0.15788583075494633,497.55,436964992,1068.59,582.3835483870969,0.9864177954482449,-0.2590764729982823,428.49,708367552,734.16,450.7780860215054,0.9946983099575791,-0.08254845195635674,1948.05,2126.64,1978.6871612903224,0.9983237496707207
71.41,35311668,117.98,73.2951612903226,0.9961862148972039,0.14034476945645624,558.77,612060992,1068.59,578.7374623655913,0.9937393732504922,-0.1796731969538684,453.31,708367552,734.16,450.14784946236546,0.9986018917540951,-0.03819617902068595,1999.99,2126.64,1979.050817204301,1.0001837864626066
75.18,28579132,117.98,73.26283870967741,0.9995590079880287,0.12355828039024042,572.76,464326016,1068.59,576.2439354838709,0.9956914368882772,-0.19438523639737326,461.9,708367552,734.16,450.1514623655914,1.000008026036846,-0.05408695702092281,2022.19,2126.64,1981.013569892473,1.000991764673807
75.63,24111440,117.98,73.26976344086022,1.000094519012705,0.08211184215812517,592.24,483566016,1068.59,575.283053763441,0.9983325087497483,-0.13151767740392406,473.35,708367552,734.16,450.98873118279573,1.0018599713367684,-0.016001748272031158,2049.58,2126.64,1984.8925591397851,1.0019580831278823
74.3,13206077,117.98,73.18922580645163,0.9989008066816868,0.08377716308336669,572.58,238036992,1068.59,573.1523440860215,0.9962962411920868,-0.20246557969175616,461.84,708367552,734.16,451.05963440860216,1.0001572172892668,-0.059813295080117235,2035.94,2126.64,1987.722322580645,1.0014256506871517
72.04,20815970,117.98,72.96935483870968,0.9969958560796448,0.051892955478516356,564.95,308812000,1068.59,570.7016129032259,0.9957241190617415,-0.28375668456941805,456.0,708367552,734.16,450.79101075268807,0.9994044608840552,-0.09650984768823767,2072.78,2126.64,1992.827634408602,1.0025684230488134
73.47,17313140,117.98,72.85217204301074,0.9983940820642041,0.03125014818700589,586.35,329000992,1068.59,569.7893548387098,0.9984015148303589,-0.22216318195207463,466.03,708367552,734.16,451.1870752688172,1.000878598966443,-0.03311380169034939,2047.6,2126.64,1995.9824946236558,1.0015831074201207
75.71,21150048,117.98,72.88741935483871,1.0004838196424284,0.04989610575200465,599.83,369064992,1068.59,569.8548602150538,1.0001149641982388,-0.16840151453032015,475.25,708367552,734.16,452.16705376344083,1.0021720003704446,-0.03489745998107696,2080.73,2126.64,2001.0886451612903,1.0025582140882439
80.92,17976352,117.98,73.25997849462365,1.0051114327147626,0.07440090398584043,644.79,340800992,1068.59,572.8991397849462,1.005342201641912,-0.06095694392462225,499.96,708367552,734.16,454.7136129032258,1.0056318989156543,0.011395274865479532,2091.58,2126.64,2006.630924731183,1.0027696322115935
82.62,18114476,117.98,73.7247311827957,1.006343882399667,0.080742476491666,642.79,384462016,1068.59,575.7645376344086,1.0050015747109309,-0.08376670715726386,502.42,708367552,734.16,457.3261720430108,1.0057455045673793,0.011294213914258222,2065.3,2126.64,2010.13311827957,1.001745310263698
78.68,22144544,117.98,73.92333333333332,1.0026938334986288,0.05229661774135208,601.55,431600992,1068.59,575.9812688172044,1.000376423292213,-0.23485757445906608,487.59,708367552,734.16,458.91156989247315,1.0034666676573087,-0.05769495246535872,2057.14,2126.64,2012.8638279569889,1.0013584720596793
78.65,15781598,117.98,74.13853763440859,1.0029111823205386,0.044415493384261984,604.62,311416992,1068.59,576.6262150537633,1.0011197347404774,-0.19483495081541113,485.15,708367552,734.16,460.37952688172044,1.0031987796463515,-0.05527229242683718,2046.61,2126.64,2014.8243225806452,1.0009739827386368
80.92,16559164,117.98,74.51922580645162,1.0051348217025842,0.043884226086630895,617.16,271646016,1068.59,578.3016989247311,1.0029056671847838,-0.10737258148035322,492.5,708367552,734.16,462.3750107526881,1.0043344322552388,-0.013461097355411678,2052.32,2126.64,2017.1241720430105,1.0011414640157905
81.57,13891388,117.98,74.95154838709678,1.0058014905008277,0.03774833054518023,626.16,259626000,1068.59,580.699870967742,1.0041469220088233,-0.12131535013648143,499.38,708367552,734.16,464.84092473118284,1.0053331471665834,-0.014911124569551903,2099.06,2126.64,2022.4886021505379,1.002659444659817
79.71,10550576,117.98,75.27307526881721,1.0042897963903277,0.061324423984892684,623.37,230346000,1068.59,583.0473333333332,1.0040424709612543,-0.1924714906530799,494.31,708367552,734.16,466.98561290322573,1.0046138110005765,-0.03866679592875977,2099.13,2126.64,2027.8151827956988,1.0026336764714012
81.56,16775433,117.98,75.72591397849463,1.0060159453836612,0.06962690913274105,623.63,295103008,1068.59,585.6057634408603,1.0043880315735265,-0.16847073949719393,501.15,708367552,734.16,469.61438709677407,1.0056292402183558,0.0003626423469271778,2096.07,2126.64,2032.944494623656,1.0025294769816673
80.89,13190209,117.98,76.13701075268817,1.0054287462850602,0.07281497980918272,618.45,324232992,1068.59,587.9434838709677,1.0039919696424633,-0.14786919246275942,500.82,708367552,734.16,472.18395698924735,1.0054716592231314,0.03096566828788505,2071.22,2126.64,2036.3135268817207,1.0016572180238932
81.06,16525793,117.98,76.56281720430107,1.0055926342182782,0.09405583947292584,616.31,357247008,1068.59,590.2809247311827,1.003975621678508,-0.15255911460393634,497.72,708367552,734.16,474.5299569892473,1.0049684026008816,0.027994336130940267,2037.41,2126.64,2037.5398709677422,1.0006022373616992
84.78,16287692,117.98,77.230688172043,1.0087231764991063,0.083922162921103,634.99,332007008,1068.59,593.9802795698926,1.0062671089030948,-0.13377364321296448,514.79,708367552,734.16,477.9742795698924,1.0072583880741657,0.08080913814201596,2102.95,2126.64,2043.1079354838712,1.0027327389247527
82.54,9037953,117.98,77.74481720430107,1.0066570562094794,0.07531133347951458,616.75,256403008,1068.59,596.546,1.0043195380694547,-0.11304149192175261,509.01,708367552,734.16,480.95784946236563,1.0062421138960824,0.09023999679731465,2129.9,2126.64,2050.390494623656,1.003564451497302
84.1,11853837,117.98,78.34313978494625,1.0076959802873144,0.0788382255280542,626.76,252688992,1068.59,599.7228602150537,1.0053254237142712,-0.030579103519966955,519.62,708367552,734.16,484.48427956989246,1.0073320980444935,0.10716946275035522,2161.74,2129.9,2059.4744946236556,1.004430375591293
80.98,10674431,117.98,78.7129247311828,1.0047200679887431,0.08626498911010638,613.52,236796000,1068.59,601.924623655914,1.0036713015076177,-0.10227325881580729,512.82,708367552,734.16,487.3975053763441,1.006013045065235,0.06272610363296716,2175.03,2161.74,2069.0800215053764,1.0046640669291105
81.7,15702760,117.98,79.11290322580645,1.0050814843431322,0.10052810465836193,617.53,305742016,1068.59,604.3634193548387,1.0040516629542617,-0.06427381785096875,502.23,708367552,734.16,489.51105376344077,1.0043363955781117,0.056512852685373094,2173.6,2175.03,2078.3480430107525,1.0044792958266704
90.16,22839188,117.98,80.03522580645162,1.0116583078491337,0.2059058560787892,629.29,323675008,1068.59,607.493376344086,1.0051789318959583,0.03692337419813985,501.92,708367552,734.16,491.4889247311828,1.0040405031766613,0.06571594140945969,2182.87,2175.03,2087.9352903225804,1.004612917140644
91.2,15592328,117.98,80.9716559139785,1.0117002244710527,0.15969335849508615,642.8,275374016,1068.59,611.2981505376345,1.0062630710748581,0.12807053466594454,508.16,708367552,734.16,493.6884086021505,1.0044751443222666,0.08031289343519532,2184.05,2182.87,2097.0377204301076,1.0043595364998696
91.76,14878690,117.98,81.88350537634409,1.0112613414172278,0.10786381783393373,662.47,282307008,1068.59,616.0623440860213,1.007793567744638,0.15712846017797633,518.15,708367552,734.16,496.3195913978495,1.0053296426447382,0.09723034931128827,2183.87,2184.05,2105.475376344086,1.0040236071253157
90.18,11162679,117.98,82.63806451612903,1.009215032213349,0.06416139467489734,654.52,233786000,1068.59,620.0002365591396,1.0063920356615212,0.08811735582735847,511.22,708367552,734.16,498.2862150537635,1.003962413916354,0.05818705679991498,2169.04,2184.05,2112.360623655914,1.0032701628283982
88.91,10912697,117.98,83.26948387096775,1.0076407810194474,0.00938421586949989,650.56,240094000,1068.59,623.4425806451612,1.005552165762268,0.14475613964437994,508.35,708367552,734.16,499.90305376344094,1.0032447991953841,0.05050723641559607,2179.98,2184.05,2119.459634408602,1.0033607001916187
92.65,18403664,117.98,84.09520430107528,1.009916242922642,-0.01596189466053355,662.04,238222000,1068.59,627.2892688172043,1.006170076108793,0.20927674443554523,511.68,708367552,734.16,501.5449677419354,1.00328446478999,0.08688227397004034,2127.81,2184.05,2122.5478279569893,1.0014570664608335
90.97,18664684,117.98,84.75888172043011,1.0078919770142747,-0.03084902298825587,642.88,386519008,1068.59,629.5044301075269,1.0035313234267493,0.21501796868538325,496.79,708367552,734.16,502.0219784946237,1.0009510827211285,0.048634083689606644,2139.16,2184.05,2125.802623655914,1.001533438095507
89.75,16706763,117.98,85.29812903225806,1.0063621333939563,0.03757857948391563,642.86,285303008,1068.59,631.3707311827956,1.0029647147597514,0.15021460024339772,497.27,708367552,734.16,502.3793763440861,1.0007119167382554,0.049308520386024846,2164.69,2184.05,2130.228430107527,1.0020819460858514
96.71,18097214,117.98,86.23855913978497,1.011025213778971,0.14434884770024103,676.08,366548992,1068.59,635.0677634408603,1.0058555648456158,0.13124752265471917,520.35,708367552,734.16,504.07789247311825,1.0033809431855913,0.06374954422256174,2168.27,2184.05,2134.419311827957,1.0019673391178139
96.44,10860945,117.98,87.10716129032255,1.010072085609984,0.1007571074480258,677.02,270831008,1068.59,638.5731612903224,1.0055197225418426,0.17992405252908106,520.28,708367552,734.16,505.6277204301075,1.003074580298266,0.06133775935686159,2153.74,2184.05,2137.3108817204293,1.0013547337566
94.48,11258454,117.98,87.80359139784947,1.0079950958935024,0.1295922794610196,663.1,244368992,1068.59,640.9562795698924,1.0037319424367204,0.12645647767664103,514.27,708367552,734.16,506.66425806451616,1.0020500015970781,0.045756396717699266,2132.98,2184.05,2138.5801935483873,1.000593882639542
90.6,13201101,117.98,88.20916129032257,1.004619058127536,0.05732493104456449,665.37,277462016,1068.59,643.3334623655912,1.0037088064685067,0.1515637089818067,516.84,708367552,734.16,507.77860215053767,1.0021993737831012,0.06740757467573277,2141.16,2184.05,2140.1978924731184,1.0007564359426928
87.62,14135592,117.98,88.38741935483871,1.00202085658574,0.06620236203358143,649.73,301543008,1068.59,644.502064516129,1.0018164796624145,0.2035184933684534,510.77,708367552,734.16,508.3830537634409,1.001190384175984,0.09423618450041604,2126.41,2184.05,2140.637698924731,1.0002054980304202
88.59,19138512,117.98,88.59475268817205,1.0023457335313861,0.13410049359278586,628.39,313419008,1068.59,644.1115698924731,0.9993941142392629,0.14014850995093253,499.68,708367552,734.16,508.1542365591398,0.9995499118182496,0.05385245801345295,2085.18,2184.05,2138.3021720430106,0.998908957418206
88.21,15379742,117.98,88.74505376344086,1.0016965008728884,0.08321381631809288,648.95,290879008,1068.59,644.9571182795698,1.0013127359088394,0.16169252379844778,511.21,708367552,734.16,508.59692473118275,1.0008711689093464,0.035429560488412726,2164.45,2184.05,2141.000021505376,1.0012616783061057
89.89,23491962,117.98,88.97686021505375,1.0026120492555088,0.07446628348504825,668.25,267764992,1068.59,646.942193548387,1.0030778407006535,0.0989323610425058,521.02,708367552,734.16,509.59518279569903,1.0019627685815127,-0.0010592958663613317,2181.9,2184.05,2144.6436344086023,1.0017018275883363
92.62,12709222,117.98,89.36550537634407,1.004367935217662,0.04836847902244901,689.5,181483008,1068.59,650.2477849462365,1.0051095622310842,0.11881345009458211,532.69,708367552,734.16,511.3010537634409,1.0033475021454938,-0.011436103286144306,2213.35,2184.05,2150.122043010753,1.0025544610369084
100.11,27746268,117.98,90.21587096774195,1.0095155909186295,0.07316702864321378,721.38,389907008,1068.59,655.5096989247312,1.0080921674787862,0.28688890831448843,546.74,708367552,734.16,513.8482795698926,1.0049818512747095,0.055778207561385296,2191.95,2213.35,2153.9014193548387,1.0017577496851267
102.73,23440008,117.98,91.18918279569893,1.0107886984575585,0.0747815585619045,744.52,1191902976,1068.59,662.006817204301,1.0099115517134643,0.2684766883208647,558.71,708367552,734.16,517.0405591397849,1.0062124944206574,0.04758775556635797,2259.53,2213.35,2161.7508817204302,1.003644299732131
100.36,27234400,117.98,91.95780645161291,1.0084288907121366,0.05213370018204344,733.25,1452844032,1068.59,667.4759784946237,1.0082614878701996,0.20431753293006139,563.18,708367552,734.16,520.3630322580645,1.0064259429159819,0.04326029306835699,2258.07,2259.53,2169.048258064516,1.0033756786712993
98.46,11415984,117.98,92.5620430107527,1.006570802223928,0.03702500722102231,732.63,794249984,1068.59,672.6554838709678,1.0077598378716572,0.2073597792012667,561.56,708367552,734.16,523.4289892473118,1.0058919577279402,0.046036412469404375,2263.79,2259.53,2176.272193548387,1.0033304632375109
97.56,7002736,117.98,93.07189247311828,1.0055081915413897,0.07277453969542336,717.6,571440000,1068.59,676.6363440860216,1.0059181264562729,0.1817879954688646,554.5,708367552,734.16,525.9057419354839,1.0047317835638672,0.05521431278294431,2238.83,2263.79,2181.531548387097,1.0024166806221673
101.53,12072263,117.98,93.79948387096773,1.0078175201826867,0.07765191776096603,727.9,887830016,1068.59,681.0790752688173,1.0065659068148294,0.17773928737769362,557.57,708367552,734.16,528.4511182795698,1.0048399858398924,0.0262719231148143,2276.98,2263.79,2188.9517634408603,1.0034013787512033
101.7,17091612,117.98,94.49509677419357,1.0074159566185112,0.1031195266109437,713.78,951660032,1068.59,684.3866021505377,1.0048563037712104,0.19451122987419744,546.96,708367552,734.16,530.1906451612903,1.003291746050957,-0.006083739028399426,2274.64,2276.98,2195.831956989247,1.0031431453462325
101.78,11322998,117.98,95.15111827956991,1.0069423867245089,0.0942008497899176,715.79,734449984,1068.59,687.6187956989248,1.0047227598235131,0.19300561333575494,547.41,708367552,734.16,531.8599784946236,1.0031485529753652,-0.014967368313886897,2271.31,2276.98,2202.059849462366,1.002836233644062
99.3,13640387,117.98,95.60258064516128,1.0047446879632553,0.04472938242325042,715.34,908339968,1068.59,690.6080215053763,1.004347213638064,0.2097336313810445,544.42,708367552,734.16,533.2295483870968,1.0025750572478673,-0.03361922976663623,2294.69,2276.98,2209.2931182795696,1.0032847739442547
97.41,17036922,117.98,95.90088172043012,1.0031202199067828,0.03199131467279881,708.13,1068390016,1068.59,692.9592903225806,1.003404635833912,0.23292493711089957,538.04,708367552,734.16,534.1237849462366,1.0016770198910483,-0.021619301542142866,2297.42,2294.69,2216.2901720430104,1.0031671006918672
97.89,16421799,117.98,96.19817204301074,1.0030999748620382,0.0353895492125329,707.35,1023689984,1068.59,695.0637204301075,1.0030368740803624,0.20799465941146966,534.42,708367552,734.16,534.7220430107527,1.0011200738131825,-0.04292308942417655,2316.1,2297.42,2224.132129032258,1.0035383259323027
95.57,14078834,117.98,96.31612903225806,1.001226187428952,0.05728686303049724,688.91,872249984,1068.59,695.8051612903226,1.0010667235800428,0.21167491251901183,523.3,708367552,734.16,534.5710537634409,0.9997176304038979,-0.06054217296820852,2351.16,2316.1,2233.9040645161294,1.0043935948572098
92.93,12136177,117.98,96.23238709677419,0.9991305512760399,0.051871213705820374,670.38,1050990016,1068.59,695.1889892473118,0.99911444743832,0.15438461728590647,516.53,708367552,734.16,533.9607526881721,0.998858334975356,-0.060660224812133956,2367.34,2351.16,2244.3410967741934,1.0046721040638442
95.12,20427140,117.98,96.26578494623655,1.0003470541516213,-0.016352833124154476,674.2,1061950016,1068.59,694.7056129032258,0.9993046835442411,0.1294817026136389,523.98,708367552,734.16,533.8003440860215,0.9996995872798833,-0.047785797821928266,2383.12,2367.34,2255.3795483870967,1.004918348475982
91.47,20105260,117.98,96.05303225806452,0.9977899449083508,-0.010122858874005214,651.21,1169880064,1068.59,692.6424301075268,0.9970301336891799,0.10250137460778408,510.15,708367552,734.16,532.7002365591399,0.9979391030015815,-0.08241435173224887,2372.6,2383.12,2265.3086451612903,1.0044024061410393
93.06,24132672,117.98,95.94227956989248,0.9988469631247613,0.01884685038261813,659.37,1039070016,1068.59,691.0876129032258,0.9977552382922028,0.05048889463798145,511.82,708367552,734.16,531.7035913978494,0.9981290694223678,-0.10122366915733827,2378.25,2383.12,2275.196774193548,1.004365025072137
91.54,12317846,117.98,95.73066666666664,0.9977943727814839,0.03928189036039709,638.68,901640000,1068.59,688.204623655914,0.9958283303108263,0.01954535989785977,502.92,708367552,734.16,530.1463655913979,0.9970712520440992,-0.09688886372647354,2343.98,2383.12,2282.4559139784947,1.0031905547103808
94.14,21094632,117.98,95.68387096774194,0.9995111733726075,0.026589761580972704,671.53,1164860032,1068.59,687.4750537634408,0.9989398939393961,0.08253508975925228,514.01,708367552,734.16,529.3224731182795,0.9984459150781893,-0.07269239594513777,2362.72,2383.12,2290.547870967742,1.0035452851201592
93.95,13187822,117.98,95.61356989247312,0.9992652776841301,0.0006031089435805104,670.93,1216729984,1068.59,686.6616774193549,0.998816864205278,0.019191880410858175,517.13,708367552,734.16,528.6876989247312,0.9988007798161133,-0.09637434505214437,2355.54,2383.12,2297.783612903226,1.0031589568710595
92.29,10340750,117.98,95.43337634408601,0.998115397755886,-0.011186585997834397,659.4,774099968,1068.59,685.085311827957,0.997704305274,0.016217708062165936,509.4,708367552,734.16,527.5424946236559,0.9978338737530598,-0.06333878265005222,2328.95,2383.12,2302.8141290322583,1.002189290628057
90.31,12550172,117.98,95.12260215053765,0.9967435481646603,0.003315122870577447,644.74,983110016,1068.59,682.5276129032258,0.996266597924999,0.027953762694527207,498.53,708367552,734.16,525.6688817204301,0.9964484133082732,-0.08246678890821246,2348.69,2383.12,2308.710043010752,1.0025603082351122
89.26,12089733,117.98,94.7428817204301,0.9960080945903204,-0.026004968871689682,641.58,1205059968,1068.59,679.7620000000001,0.9959479838603719,-0.023939179620372064,498.95,708367552,734.16,523.8196559139785,0.9964821470877268,-0.14071247121465658,2384.2,2383.12,2316.501225806451,1.0033746909098809
87.7,19698026,117.98,94.27853763440861,0.9950989026553816,-0.02593101387627661,633.22,1297379968,1068.59,676.5312258064515,0.9952471979993754,-0.0942338084936708,495.45,708367552,734.16,521.7906451612903,0.996126508942953,-0.16173527855402048,2399.29,2384.2,2324.8015913978493,1.0035831475066492
91.39,18545028,117.98,94.07105376344086,0.9977992459771456,-0.0017748564047119775,642.59,1078160000,1068.59,673.9991612903226,0.9962572835967615,-0.035500956919143456,497.35,708367552,734.16,519.9376129032258,0.996448705481311,-0.15382103268803027,2390.9,2399.29,2332.032602150538,1.003110377582089
90.53,18891308,117.98,93.81473118279568,0.9972752236698682,0.032036186209993156,643.54,1041489984,1068.59,671.5724946236559,0.9963995998718737,-0.04422528178501517,498.15,708367552,734.16,518.1725806451612,0.9966052999162553,-0.14851704690816325,2381.73,2399.29,2338.1173333333336,1.0026091964482762
88.03,11928312,117.98,93.3972688172043,0.9955501405767719,0.04863601744805679,621.17,1020929984,1068.59,667.7495483870968,0.9943074705007068,-0.09828827128603235,487.49,708367552,734.16,515.7600000000001,0.9953440596139662,-0.1816808776874832,2415.82,2399.29,2345.884064516129,1.0033217884629095
86.54,12611652,117.98,92.88279569892471,0.9944915614257788,0.021322524300616874,600.45,1095570048,1068.59,662.651247311828,0.9923649501709386,-0.12742821925427295,476.67,708367552,734.16,512.6994193548387,0.9940658821057053,-0.2157662347230862,2439.07,2415.82,2354.528408602151,1.0036848982508457
86.93,18130636,117.98,92.3978924731183,0.9947794075085962,0.04786686059598755,608.47,1269859968,1068.59,658.1304516129031,0.9931777149484524,-0.15717096583015788,486.49,708367552,734.16,510.3218709677419,0.9953626856256467,-0.17186067804937932,2431.77,2439.07,2361.9407311827954,1.0031481134623663
85.42,19569780,117.98,91.81832258064516,0.9937274554975184,0.05062422014153134,601.19,1288530048,1068.59,653.2270322580646,0.9925494720038838,-0.2064122708567151,488.95,708367552,734.16,508.1561935483871,0.9957562519998447,-0.17670427144402978,2433.15,2439.07,2368.867204301075,1.0029325346850728
84.72,17971382,117.98,91.20320430107526,0.9933007022750864,0.060753108015487944,588.8,1495609984,1068.59,647.6684731182796,0.9914906167912705,-0.24013797831329664,474.83,708367552,734.16,505.1485161290322,0.994081194999607,-0.2102517919248703,2438.3,2439.07,2375.585612903226,1.0028361271539208
87.35,19208668,117.98,90.77475268817204,0.9953022307035525,0.037293872357141655,602.53,1204780032,1068.59,643.2122795698925,0.9931196380040976,-0.2552791748305199,477.91,708367552,734.16,502.46397849462375,0.9946856467975396,-0.23148712303059815,2423.41,2439.07,2380.8596129032258,1.0022200841642388
85.35,12221029,117.98,90.24470967741935,0.9941608983218772,0.04110178627524863,587.96,848480000,1068.59,638.0716774193548,0.9920079228680535,-0.24595024244429098,471.95,708367552,734.16,499.5429462365591,0.9941865837491156,-0.22859799089356203,2425.18,2439.07,2385.7500430107525,1.002054060676666
88.66,11994823,117.98,89.9655913978495,0.9969070953791356,0.05842139385834588,604.93,949129984,1068.59,634.3626021505378,0.9941870554671566,-0.22916174713451154,481.78,708367552,734.16,497.442688172043,0.995795640634426,-0.23363902343477372,2459.27,2439.07,2392.4835913978495,1.0028224031292898
89.66,17009180,117.98,89.77615053763442,0.9978942965052348,0.08655142517732839,603.74,996220032,1068.59,630.8527096774194,0.9944670564418212,-0.24182156204410432,479.45,708367552,734.16,495.36716129032254,0.9958276060115641,-0.23843029621656564,2472.54,2459.27,2399.640580645161,1.0029914475790114
92.08,13855013,117.98,89.76176344086022,0.999839744779788,0.07928094331110536,620.4,1228710016,1068.59,628.6948387096775,0.9965794377441204,-0.19459044209289345,488.44,708367552,734.16,494.0482150537634,0.9973374370777353,-0.22332717027214155,2472.1,2472.54,2406.320258064516,1.0027836157936447
87.29,22247004,117.98,89.45012903225806,0.9965282053665592,0.034357785153533715,600.8,1360669952,1068.59,625.4814838709676,0.9948888480692718,-0.20960752278543837,483.44,708367552,734.16,492.54875268817216,0.9969649473069586,-0.2207216815666393,2476.83,2472.54,2412.803440860215,1.0026942310666966
85.43,17256950,117.98,89.04911827956988,0.9955169348884498,0.024992626539668716,581.75,1120950016,1068.59,621.3124301075268,0.9933346487930554,-0.2233535020798305,469.55,708367552,734.16,490.31258064516135,0.9954599985670322,-0.2148052464659317,2441.32,2476.83,2416.5658709677423,1.0015593603870965
81.15,16607972,117.98,88.40696774193549,0.9927888052117668,0.012594525447975902,561.69,990000000,1068.59,616.1331182795698,0.9916639172548654,-0.24801520995163429,457.09,708367552,734.16,487.43901075268826,0.9941393102973373,-0.23290310641757062,2425.55,2476.83,2418.9524301075267,1.00098758290368
81.55,11003901,117.98,87.83498924731184,0.9935301649945366,0.02603248038925765,568.85,807870016,1068.59,611.7471397849462,0.9928814433691365,-0.27114070483468267,461.78,708367552,734.16,485.0622580645161,0.9951239998528183,-0.21644818371057273,2443.05,2476.83,2422.136322580645,1.001316227815599
82.65,14107738,117.98,87.3721505376344,0.9947305884176264,0.02703030099911663,581.69,891840000,1068.59,608.5045806451614,0.994699510747325,-0.23916243038226903,465.36,708367552,734.16,483.09419354838707,0.995942655847969,-0.21305296424021303,2476.55,2476.83,2427.162451612903,1.002075080987557
83.74,10733866,117.98,87.01137634408602,0.9958708330820703,0.03912144466956402,577.43,826019968,1068.59,605.2590967741935,0.9946664594249613,-0.2420777046315813,471.43,708367552,734.16,481.67404301075265,0.9970603030286843,-0.18061382029016781,2461.43,2476.83,2430.827870967742,1.001510166471306
89.96,16432677,117.98,87.08232258064515,1.0008153673639018,0.059065316883514574,607.78,1218989952,1068.59,604.2510752688172,0.9983345619904787,-0.1723440280653734,487.76,708367552,734.16,481.44290322580633,0.9995201323627456,-0.13131789971008434,2500.23,2476.83,2436.6839784946233,1.0024091000423447
91.24,13206388,117.98,87.24791397849461,1.0019015500843595,0.040974744952332665,630.72,930369984,1068.59,604.8975268817204,1.0010698394084208,-0.06234213363990215,497.41,708367552,734.16,481.91077419354843,1.0009718098752878,-0.09399158241669192,2502.22,2500.23,2442.347892473119,1.002324435186706
93.36,13211504,117.98,87.55391397849462,1.0035072471769977,0.02302775940534696,646.2,1079480064,1068.59,606.6279784946236,1.0028607351427337,-0.05563241867935942,506.72,708367552,734.16,483.0204086021505,1.002302572318411,-0.09010894212356801,2519.36,2502.22,2448.827548387097,1.0026530437919787
92.82,9442640,117.98,87.82886021505377,1.003140307772268,0.027350881583411035,643.01,917740032,1068.59,608.2128387096774,1.0026125735561797,-0.07001099234902852,503.79,708367552,734.16,483.9781290322581,1.0019827742535337,-0.08695482505938668,2549.33,2519.36,2456.94776344086,1.0033159603497237
93.24,10366017,117.98,88.128,1.0034059395079677,0.029233021180847474,641.37,811609984,1068.59,609.7095268817204,1.0024607967421706,-0.08558449948977265,504.51,708367552,734.16,484.99597849462367,1.0021030897912697,-0.08783224400670109,2553.17,2549.33,2464.9356559139783,1.003251144607947
93.45,9880554,117.98,88.4403010752688,1.0035437213515432,0.01801556818650929,640.5,754369984,1068.59,611.1887956989247,1.0024261861624006,-0.03939081825706969,502.26,708367552,734.16,485.88438709677416,1.0018317855024448,-0.09996078858985358,2575.21,2553.17,2473.969311827957,1.0036648647977098
95.02,11437134,117.98,88.84978494623658,1.0046300596672468,0.050924477890449404,643.61,1119859968,1068.59,612.8647956989247,1.0027421968658365,-0.058976012250496535,499.45,708367552,734.16,486.5929247311828,1.0014582432636747,-0.12074097176606324,2581.07,2575.21,2482.8837634408605,1.0036032991881847
100.84,17782460,117.98,89.63286021505377,1.0088134739919858,0.06733029344928299,674.96,1226189952,1068.59,616.6234193548386,1.0061328757701402,-0.021199107527346994,508.14,708367552,734.16,487.89341935483867,1.002672654199348,-0.11600298589269142,2587.84,2581.07,2491.7654193548387,1.0035771533266098
100.92,18593420,117.98,90.40627956989248,1.008628747905434,0.05395848227092559,685.48,1248690048,1068.59,621.0520860215056,1.0071821253096431,-0.013003416357848074,513.67,708367552,734.16,489.57002150537636,1.0034364106668106,-0.1004005172496647,2582.3,2587.84,2499.7900860215054,1.0032204743690296
98.08,12233393,117.98,90.97791397849461,1.0063229502565716,0.05917344182987683,662.06,889329984,1068.59,623.9136989247312,1.0046076858409048,-0.009588523891339795,496.33,708367552,734.16,490.11873118279567,1.0011207991774744,-0.10240802670519833,2578.85,2587.84,2507.0473333333334,1.002903142688824
98.1,9286508,117.98,91.53412903225806,1.0061137371636695,0.06494880157955318,663.45,514470016,1068.59,626.8277419354839,1.004670586678534,-0.02702708686165134,499.94,708367552,734.16,490.9050752688173,1.0016043950903977,-0.08954338966287723,2602.42,2587.84,2515.3302580645163,1.0033038565411407
99.31,15336326,117.98,92.14939784946237,1.0067217421928762,0.06092296825942234,678.47,921910016,1068.59,630.6637849462365,1.0061197722342472,0.018315373508010824,513.33,708367552,734.16,492.5531612903225,1.0033572397282768,-0.06516238221028758,2642.22,2602.42,2525.7116344086025,1.0041272418644835
96.88,10437978,117.98,92.58292473118279,1.0047046089484886,0.014802294687725537,671.68,849180032,1068.59,633.9644516129033,1.0052336391361811,-0.011135825867705007,509.77,708367552,734.16,493.93311827956995,1.0028016407114968,-0.08402425868100982,2651.5,2642.22,2536.1692903225808,1.0041404789729398
95.1,12559840,117.98,92.8898064516129,1.0033146686748249,0.016123664964687867,665.65,1076160000,1068.59,636.8135268817203,1.0044940615543483,-0.017841945676126958,509.24,708367552,734.16,495.2521720430108,1.002670510874094,-0.10121090285697698,2675.81,2651.5,2547.6349032258067,1.004520838946744
103.36,13055492,117.98,93.71976344086022,1.0089348554050401,0.029176811632548594,711.22,896520000,1068.59,642.5550537634408,1.0090160253188007,0.12391947184870711,532.36,708367552,734.16,498.0389892473117,1.0056270671016034,-0.01869381337324305,2683.34,2675.81,2558.9538924731182,1.0044429400904265
104.13,6902210,117.98,94.5664301075269,1.0090340247945775,0.011202650704368322,715.77,544150016,1068.59,648.3964731182796,1.0090909243038797,0.16593223527514644,533.41,708367552,734.16,500.7970537634409,1.0055378485935358,0.02287453081299695,2673.61,2683.34,2569.0698279569892,1.0039531526979153
108.25,9314427,117.98,95.6410752688172,1.0113639180422522,0.028399411323305035,740.42,755120000,1068.59,655.5802150537634,1.0110792427678326,0.2074647719135605,554.41,708367552,734.16,504.78793548387085,1.0079690599024873,0.01156567587353452,2743.15,2683.34,2583.167827956989,1.0054875892615232
111.65,14483307,117.98,96.8892258064516,1.013050360779887,0.03511033211898407,764.69,1013350016,1068.59,664.046,1.012913423486312,0.31046621543900565,572.02,708367552,734.16,509.7688817204301,1.0098674034905069,0.024778259376454725,2786.24,2743.15,2599.3761935483876,1.0062746080281657
110.37,15645105,117.98,97.9983870967742,1.011447725803262,0.02227630596440444,753.95,749270016,1068.59,671.4672688172044,1.0111758354349012,0.31231861108933556,564.66,708367552,734.16,514.0963440860215,1.0084890673416287,0.0366181853540144,2810.3,2786.24,2616.3774838709674,1.0065405270559824
113.64,12079973,117.98,99.26335483870967,1.0129080465445448,0.027775081700668114,767.14,994680000,1068.59,679.3843440860214,1.0117907091476894,0.27294677138049805,573.24,708367552,734.16,518.7841720430108,1.0091185786689914,0.014006769700406263,2872.87,2810.3,2636.615548387097,1.0077351470270977
108.88,12640785,117.98,100.16468817204301,1.0090802223519233,0.06296978983821133,713.03,1299970048,1068.59,683.4564516129033,1.0059938200848006,0.2220552869763458,536.43,708367552,734.16,520.8921505376344,1.0040633053362484,-0.0023134982331578513,2762.13,2872.87,2648.7425161290316,1.0045994448259068
96.57,22488676,117.98,100.2212258064516,1.0005644467670232,0.01079493758385408,652.37,1509660032,1068.59,683.3460430107526,0.9998384555418416,0.14241787290566998,491.04,708367552,734.16,519.9330752688173,0.9981587834106789,-0.04595342069102548,2619.55,2872.87,2650.9461505376344,1.0008319549352889
103.87,15844985,117.98,100.73172043010753,1.005093677706974,0.025350839163961858,684.12,1087849984,1068.59,685.182,1.002686716354072,0.18792173233506482,500.52,708367552,734.16,519.5656989247312,0.9992934160922612,-0.061079412862813376,2732.22,2872.87,2660.074129032258,1.0034432908012003
105.02,12730776,117.98,101.28584946236559,1.0055010381029137,0.02410508676613987,692.63,1134829952,1068.59,687.394129032258,1.0032285276499644,0.17623231222416402,505.59,708367552,734.16,519.4801075268816,0.9998352635710426,-0.07621057305317236,2747.3,2872.87,2669.616559139785,1.0035872797691539
97.9,24439284,117.98,101.35279569892472,1.0006609633716308,0.00019399993501600932,673.71,1193970048,1068.59,688.2302795698926,1.0012164062832654,0.2049906813788006,491.86,708367552,734.16,518.4718279569892,0.9980590602887709,-0.06915348791671194,2691.25,2872.87,2674.9510322580645,1.0019982169724024
99.2,15318235,117.98,101.48079569892471,1.001262915335658,-0.027401566865586258,691.46,972040000,1068.59,690.0547956989246,1.0026510256569534,0.21981873355078274,502.18,708367552,734.16,518.1112473118279,0.9993045318458631,-0.07192732919188649,2786.57,2872.87,2685.9740645161287,1.0041208351574045
96.94,19402626,117.98,101.43337634408603,0.9995327258274623,-0.024030186956586652,684.48,1178160000,1068.59,691.1930537634411,1.0016495183739191,0.238959468076258,497.93,708367552,734.16,517.4063010752687,0.9986393921378531,-0.045244323513802476,2752.01,2872.87,2694.024946236559,1.0029973788007818
102.16,25698164,117.98,101.6887741935484,1.0025178876881313,0.030262007954672487,695.4,972579968,1068.59,692.7717634408602,1.0022840357969793,0.30108024092380214,493.31,708367552,734.16,516.3154623655914,0.9978917173845576,0.008841269598521384,2588.26,2872.87,2690.809247311828,0.9988063588909141
101.59,18923340,117.98,101.8630752688172,1.00171406408083,0.020663170397680508,702.97,869379968,1068.59,694.5667096774192,1.002590963332056,0.2615972063244155,498.29,708367552,734.16,515.4781075268817,0.9983782108037724,0.00441205405448164,2640.87,2872.87,2690.6754623655916,0.999950280776547
98.36,21793048,117.98,101.78825806451614,0.9992655120208809,-0.026648503008072533,693.63,998889984,1068.59,695.4982580645161,1.0013411935442882,0.2676716194313733,497.8,708367552,734.16,514.5383225806451,0.9981768673925931,-0.0021763664519558468,2604.47,2872.87,2687.839913978495,0.9989461574140928
107.14,21270954,117.98,102.24845161290322,1.004521086784837,-0.03698700916225439,746.33,951769984,1068.59,699.5799139784947,1.0058686788452027,0.30583584254071616,527.75,708367552,734.16,515.4740860215054,1.001818646735907,0.019564785655596273,2656.3,2872.87,2688.040623655914,1.0000746732260262
109.98,19650258,117.98,102.85492473118278,1.0059313672599715,-0.02385356937985672,775.31,1065350016,1068.59,705.2332903225806,1.0080811015741367,0.2901098154921755,541.48,708367552,734.16,517.2096559139784,1.003366939172187,0.02149053478833296,2670.14,2872.87,2688.798602150537,1.0002819817855255
112.7,14548404,117.98,103.59658064516127,1.0072106991076688,0.0008722139874082213,779.5,948840000,1068.59,710.8460430107526,1.0079587177253142,0.24584111748759196,544.78,708367552,734.16,519.0633548387098,1.00358403773699,0.015353274748713508,2669.91,2872.87,2689.180623655914,1.0001420788842539
110.65,20454416,117.98,104.16438709677419,1.0054809381552638,-0.03460720774283699,788.78,1219590016,1068.59,716.7708387096774,1.0083348507840468,0.26181782269272214,544.84,708367552,734.16,520.8390752688172,1.0034210090416789,0.03672942859837591,2663.42,2872.87,2688.8201720430106,0.9998659622898765
113.3,23026604,117.98,104.86481720430106,1.0067242761854502,-0.049040764953576454,810.81,1096249984,1068.59,723.803440860215,1.0098115070685598,0.3100317214088959,565.28,708367552,734.16,523.8452258064516,1.0057717454015578,0.05208751726526861,2727.72,2872.87,2692.3627526881723,1.0013175223400939
121.39,18522176,117.98,106.04404301075267,1.011245199656947,-0.010477944723662258,838.71,1028899968,1068.59,732.2716559139785,1.0116996059644305,0.37839445411745964,573.85,708367552,734.16,527.2735913978495,1.0065446155133322,0.08904107200776501,2712.97,2872.87,2694.5783440860214,1.0008229171182959
113.64,16465228,121.39,106.66318279569892,1.00583851546365,-0.0434098161793659,797.67,1239299968,1068.59,737.665870967742,1.0073664124648258,0.2740247661229004,547.77,708367552,734.16,528.8654193548387,1.0030189791086808,0.042404617082649754,2721.33,2872.87,2697.037032258064,1.0009124574824253
114.21,12612789,121.39,107.27905376344084,1.005773978908182,-0.08315984300090706,820.58,841440000,1068.59,744.2068387096775,1.0088671145017927,0.24975601927859026,561.37,708367552,734.16,531.230752688172,1.0044724673740604,0.04803547808878106,2734.62,2872.87,2700.0515053763443,1.00111769808209
113.55,18426840,121.39,107.82359139784947,1.0050758989318584,-0.06449949719741244,815.48,997529984,1068.59,750.1056129032258,1.007926256366813,0.2430319851184577,565.02,708367552,734.16,533.7170967741937,1.004680346673155,0.02378288282626695,2779.03,2872.87,2705.615483870967,1.0020606934658631
110.19,16021653,121.39,108.12419354838708,1.002787907049288,-0.06359700115892175,785.91,1113660032,1068.59,753.8170752688171,1.004947919735231,0.24371704959427454,547.51,708367552,734.16,534.9633333333333,1.0023350133744484,0.025248835926980018,2779.66,2872.87,2710.797032258065,1.0019151089347273
114.36,14381601,121.39,108.66778494623657,1.005027472390869,-0.05824654416274089,812.06,1154690048,1068.59,758.9492903225806,1.0068083029983546,0.2602699584028463,555.82,708367552,734.16,536.6356344086021,1.003126010646092,0.053189479393716654,2754.88,2872.87,2713.948021505376,1.0011623847930387
120.08,14828029,121.39,109.54544086021507,1.008076505050809,-0.0005198307337830332,820.72,998849984,1068.59,764.3206236559139,1.0070773283562202,0.23094363935082363,561.54,708367552,734.16,538.5567956989247,1.0035800106573987,0.06509573267945279,2718.37,2872.87,2714.415655913979,1.0001723077984168
120.0,7672531,121.39,110.3732688172043,1.0075569366510249,0.014238291384871538,822.41,559800000,1068.59,769.4950752688172,1.0067700012962528,0.21897506714854487,559.67,708367552,734.16,540.2536344086021,1.0031507145081613,0.05703493477224941,2759.82,2872.87,2717.393720430108,1.0010971291407196
121.55,9423362,121.39,111.25137634408603,1.0079557988659011,0.03223329615518544,829.33,819809984,1068.59,774.7918279569893,1.0068834133685933,0.25701095510394156,564.08,708367552,734.16,542.1276774193549,1.0034688207378821,0.06078820497302906,2801.31,2872.87,2722.815612903226,1.00199525465609
118.07,14789539,121.55,111.84808602150537,1.0053636161369708,-0.000408471036947633,812.73,849750016,1068.59,778.6656129032258,1.0049997751737407,0.14650185446066144,553.41,708367552,734.16,543.1953978494623,1.001969499943611,-0.004616742101996918,2801.83,2872.87,2728.0011612903227,1.0019044801868047
124.63,12877737,121.55,112.8363870967742,1.0088361018093668,0.026870555380042793,837.45,858929984,1068.59,783.915935483871,1.0067427179185036,0.18775602702372085,566.22,708367552,734.16,545.0443010752688,1.0034037534801037,0.007197573691060777,2818.82,2872.87,2734.0280215053763,1.002209258669158
118.13,15675007,124.63,113.36124731182795,1.0046515156019982,-0.019761368820505387,822.63,968350016,1068.59,787.9484516129031,1.005144067044055,0.07631942742046105,556.06,708367552,734.16,546.1671612903225,1.002060126512356,-0.032457579918469204,2840.35,2872.87,2741.1316344086026,1.0025982224203083
118.47,11465674,124.63,113.88679569892471,1.0046360497926696,-0.016516329389925755,824.03,864689984,1068.59,791.8944946236561,1.0050079964021448,0.02563654613665234,554.18,708367552,734.16,547.1651827956989,1.001827318769987,-0.04807068843618245,2833.28,2872.87,2747.570086021505,1.002348829779673
110.75,15431034,124.63,113.8996129032258,1.0001125433745188,-0.04014082745494241,786.81,856230016,1068.59,793.3116344086022,1.0017895563039867,-0.029830027647693047,534.27,708367552,734.16,546.9170537634409,0.9995465189671057,-0.06799286198186216,2850.13,2872.87,2754.9944731182795,1.0027021647726282
113.35,12895579,124.63,114.07935483870966,1.0015780732778836,-0.07393393465897191,821.9,659820032,1068.59,796.9219784946238,1.0045509783664184,0.03305186460730747,548.4,708367552,734.16,547.6458924731182,1.001332631163468,-0.04396614837395618,2874.69,2872.87,2763.9177204301077,1.0032389347415744
114.09,9974955,124.63,114.3074623655914,1.0019995513404178,-0.10612584605588204,822.82,663480000,1068.59,800.4739139784945,1.004457068043951,0.08038138793789251,547.58,708367552,734.16,548.3752473118279,1.001331800071422,-0.02967911380191035,2901.52,2874.69,2774.5680215053767,1.0038533350673013
110.46,9055687,124.63,114.29017204301077,0.9998487384618395,-0.06794816898719214,790.53,695760000,1068.59,801.7065161290325,1.0015398404982516,0.1059220518692241,534.93,708367552,734.16,548.264494623656,0.9997980348516552,-0.006867635375279013,2871.68,2901.52,2782.9933978494623,1.0030366443636565
113.7,10258164,124.63,114.45204301075266,1.0014163157238136,-0.0923179772033551,812.02,764769984,1068.59,804.0284516129032,1.002896241251826,0.09837864677407637,545.87,708367552,734.16,548.7651612903226,1.0009131845515735,0.027375137034066244,2904.98,2901.52,2793.0249462365587,1.0036045893586554
115.28,12954793,124.63,114.69470967741934,1.002120247575169,-0.09177056037113762,823.86,907649984,1068.59,806.8392043010755,1.0034958373457232,0.10510789921262775,556.34,708367552,734.16,549.8437849462366,1.0019655468896347,0.033996238221644104,2929.67,2904.98,2804.277870967742,1.0040289381397562
123.11,16223387,124.63,115.42047311827957,1.0063277848028165,0.009418720533194813,840.85,1007680000,1068.59,810.463870967742,1.0044924275460887,0.15275007225691328,560.91,708367552,734.16,551.1081075268817,1.002299421427067,0.05762467665654447,2913.98,2929.67,2814.126344086021,1.0035119462376532
126.46,13942415,124.63,116.30815053763443,1.0076908142496106,0.029375658377831737,861.16,870569984,1068.59,815.0394193548387,1.0056455920504308,0.21778887725089402,571.36,708367552,734.16,552.898129032258,1.00324804059481,0.10223182094608063,2885.57,2929.67,2821.662924731183,1.0026781244776022
117.91,15736822,126.46,116.58559139784944,1.0023853948234285,0.030367993658787507,811.76,1054009984,1068.59,816.0629247311828,1.00125577407919,0.2007826540186508,540.51,708367552,734.16,552.5490537634408,0.9993686445106477,0.08001986199399025,2767.13,2929.67,2821.3453118279567,0.9998874376877399
113.55,12925446,126.46,116.53664516129031,0.9995801690760215,-0.009402671634090032,779.47,861889984,1068.59,814.7294838709677,0.9983660073018826,0.06367330159116924,530.02,708367552,734.16,551.4316344086022,0.9979777010797,0.005056343889196402,2767.78,2929.67,2821.0371182795698,0.9998907636200735
102.83,19417060,126.46,115.77159139784945,0.993435079906565,-0.0009240797677934065,712.2,1123510016,1068.59,808.8752473118279,0.9928145026354945,-0.0009809030696577015,492.59,708367552,734.16,547.8204301075269,0.9934512202859956,-0.01818689809753604,2658.69,2929.67,2813.304795698925,0.9972590496840537
98.77,22971792,126.46,114.74193548387095,0.9911061435577915,-0.01986462476343931,710.3,1416540032,1068.59,802.8785806451612,0.9925864134344625,-0.010500368408551175,500.99,708367552,734.16,544.7634193548387,0.994419684654535,-0.039125060223631936,2723.06,2929.67,2809.6870537634413,0.9987140597275438
101.82,20426876,126.46,113.90817204301074,0.9927335769843502,-0.009565152814813849,716.41,1187180032,1068.59,797.2402580645161,0.9929773657978093,-0.12554916195532784,505.68,708367552,734.16,542.002129032258,0.9949312119270952,-0.08876780642492832,2781.01,2929.67,2809.5529892473123,0.9999522848938107
101.52,23395240,126.46,113.0664946236559,0.9926109127707095,0.02381082306531468,697.21,1425709952,1068.59,790.4275698924731,0.9914546611223795,-0.2066572449361267,495.03,708367552,734.16,538.6012043010752,0.9937252557711255,-0.11054990008077092,2736.27,2929.67,2806.2642795698926,0.9988294544754962
97.18,18641012,126.46,111.96301075268818,0.990240399026779,0.023726082004880023,653.66,815660032,1068.59,780.9731612903225,0.9880388678706681,-0.22405442248759744,469.96,708367552,734.16,533.6827526881721,0.9908681013454368,-0.12335060801438247,2632.56,2929.67,2796.142387096774,0.996393107895501
99.7,18730896,126.46,111.05548387096773,0.9918944044500102,0.04916680116904382,671.94,1072040000,1068.59,772.9687311827958,0.9897506975856867,-0.22956678390350105,486.42,708367552,734.16,529.9871397849462,0.9930752626263244,-0.143549615464184,2760.17,2929.67,2794.333720430108,0.9993531564504681
99.98,17488066,126.46,110.18956989247313,0.9922028705984417,0.07817853966721278,652.1,1082150016,1068.59,763.935569892473,0.988313678256428,-0.27327108139605993,471.34,708367552,734.16,525.4442580645161,0.9914283170677058,-0.1314874872361672,2633.08,2929.67,2784.117634408602,0.9963439993058762
96.58,16299407,126.46,109.13294623655914,0.9904108559735274,0.05394271667889772,622.05,1273750016,1068.59,753.3050107526882,0.9860844820443677,-0.35133618082155715,455.93,708367552,734.16,520.1092043010752,0.9898465847108261,-0.16383009825934447,2599.95,2929.67,2771.9676559139784,0.9956359679833698
84.21,26734068,126.46,107.33161290322582,0.9834941381548639,0.03628423181142315,562.15,1647670016,1068.59,739.2758709677419,0.9813765478993314,-0.2985946673897817,415.06,708367552,734.16,512.3909677419355,0.9851603538347076,-0.1303022320852647,2416.62,2929.67,2748.2329892473126,0.9914376105305457
84.46,14892008,126.46,105.60969892473118,0.9839570660319138,0.039449121528181474,574.46,955840000,1068.59,726.5474193548387,0.9827825415210142,-0.2854310411429669,422.16,708367552,734.16,505.416193548387,0.9863877885586357,-0.15697179710289,2485.74,2929.67,2729.6129677419353,0.9932247296432909
90.63,14270092,126.46,104.34982795698924,0.9880704993900243,0.0459678309260072,613.39,981680000,1068.59,716.859870967742,0.9866663233134886,-0.21478116026830563,443.41,708367552,734.16,500.11176344086016,0.9895048275555124,-0.12631900091843806,2531.94,2929.67,2714.508817204301,0.9944665596492498
93.48,19317276,126.46,103.32311827956988,0.9901608876840453,0.030320245933186274,642.9,1321200000,1068.59,709.5107956989247,0.9897482401143527,-0.19950586238588675,458.28,708367552,734.16,496.0282150537634,0.9918347283835093,-0.09699489982074805,2596.26,2929.67,2704.085720430108,0.996160227328004
97.51,14728365,126.46,102.5923440860215,0.9929272925002992,0.03528024586890233,663.76,1068569984,1068.59,703.815075268817,0.9919723273209721,-0.19663668919700605,471.53,708367552,734.16,492.9913978494624,0.9938777329350672,-0.12109675974570644,2670.71,2929.67,2698.860258064516,0.9980675677822962
95.63,12615971,126.46,101.77651612903226,0.9920478670776331,0.0061893299323666495,648.53,869529984,1068.59,697.4556989247312,0.9909644215255592,-0.2282780794171908,464.69,708367552,734.16,489.694559139785,0.9933125837001235,-0.1527507530645359,2664.76,2929.67,2693.4319354838713,0.9979886611155859
95.39,13942389,126.46,100.99778494623654,0.9923486162386572,-0.005219518447813876,658.04,1033209984,1068.59,692.0801720430106,0.9922926618995184,-0.22965353451168768,479.44,708367552,734.16,487.55761290322585,0.9956361650406879,-0.12404310231246041,2706.53,2929.67,2690.8137419354844,0.9990279340220578
89.26,13022120,126.46,99.87649462365592,0.9888978721347452,-0.017294887519115232,623.36,1173709952,1068.59,684.8207096774194,0.9895106626965465,-0.3012728742833053,463.84,708367552,734.16,484.5867526881721,0.9939066478782613,-0.14435303697674728,2707.88,2929.67,2688.397247311828,0.9991019465279234
96.74,14860597,126.46,99.30722580645161,0.994300272357882,0.0008192392013428584,665.24,1139769984,1068.59,680.7061290322581,0.993991740338724,-0.2624022320369379,485.89,708367552,734.16,483.2540430107527,0.9972498016711633,-0.11264545319663277,2775.6,2929.67,2690.5507096774195,1.0008010208936737
92.19,14248381,126.46,98.49027956989246,0.9917735468902196,-0.0412923106176597,654.05,911009984,1068.59,676.1867956989248,0.9933608158637292,-0.30344681074930524,483.41,708367552,734.16,481.90653763440855,0.9972116004080401,-0.13697364249987687,2792.67,2929.67,2693.861870967742,1.001230663030588
93.05,28559184,126.46,97.79858064516128,0.9929769828276269,-0.00429271936654152,651.51,1320470016,1068.59,671.898,0.9936573802886941,-0.24475380239835642,488.65,708367552,734.16,481.0751827956989,0.9982748629167999,-0.1083210649739983,2803.69,2929.67,2697.9402365591395,1.001513947554383
83.42,22637550,126.46,96.53952688172042,0.9871260528002034,-0.034627137504912864,608.77,1139459968,1068.59,665.2197849462365,0.9900606713314171,-0.3222970556267266,469.77,708367552,734.16,479.17073118279575,0.9960412599090319,-0.12047570940776986,2743.07,2929.67,2698.18647311828,1.0000912683519834
85.74,35942832,126.46,95.50552688172041,0.9892893612243734,-0.03838350377469313,639.33,1117309952,1068.59,660.9761075268818,0.9936206385988691,-0.24099646878809355,484.84,708367552,734.16,478.4200645161291,0.998433404592944,-0.08281745205087909,2822.48,2929.67,2703.749935483871,1.0020619265647572
90.4,32423076,126.46,94.82595698924732,0.9928844966918541,0.01860289828408712,640.2,1055910016,1068.59,657.1057204301075,0.9941444372153543,-0.2959195115620008,484.86,708367552,734.16,477.77698924731175,0.9986558354958047,-0.09012938379206681,2800.71,2929.67,2707.9683440860217,1.0015602066399665
91.85,13649869,126.46,94.28929032258064,0.9943405088257898,0.01413984929052936,650.79,887520000,1068.59,654.309311827957,0.9957443551087638,-0.28534729910004086,489.45,708367552,734.16,477.566688172043,0.9995598342322847,-0.08302530145068165,2834.4,2929.67,2714.519397849463,1.002419176641318
95.18,19534028,126.46,94.01529032258064,0.9970940496098486,0.021827757343166443,663.92,1030670016,1068.59,652.7299569892472,0.9975862259482483,-0.2600612402299102,500.45,708367552,734.16,478.1910752688171,1.001307434358883,-0.07179071796575587,2892.74,2929.67,2724.9786666666664,1.0038530831002679
101.63,21843790,126.46,94.1902795698925,1.0018612849751507,0.04478800568511743,689.45,1188450048,1068.59,653.0699784946237,1.0005209221696287,-0.25243810859286586,499.6,708367552,734.16,478.83477419354836,1.0013461123764584,-0.08560026616536043,2907.41,2929.67,2736.3390967741934,1.0041689978150998
100.24,14833619,126.46,94.30154838709676,1.0011813195343762,0.04065635212574692,682.88,839619968,1068.59,653.2497204301076,1.0002752261494217,-0.24146841767491822,496.88,708367552,734.16,479.40249462365585,1.0011856290743788,-0.09846658597748148,2905.03,2929.67,2747.540752688172,1.0040936651189114
94.46,20198672,126.46,94.07225806451612,0.9975685412752776,-0.03645302331301625,675.82,1217539968,1068.59,653.2771612903225,1.0000420066926272,-0.30005048488198705,490.47,708367552,734.16,479.6845376344085,1.0005883219505858,-0.13446983140426427,2939.88,2929.67,2761.043784946237,1.0049145885260677
87.72,24003940,126.46,93.46974193548387,0.9935951773516584,-0.059512068899162385,648.6,1201810048,1068.59,651.903376344086,0.9978970871359975,-0.39258997963235476,474.5,708367552,734.16,479.08774193548396,0.9987558579605929,-0.19034272054370338,2945.64,2939.88,2774.8627311827954,1.0050049717834617
91.68,17623260,126.46,93.20602150537634,0.9971785475743631,-0.015808058107602663,644.01,1295260032,1068.59,650.6905806451614,0.9981396081951193,-0.37822968994471984,471.66,708367552,734.16,478.5160215053764,0.9988066477597656,-0.16867519084004612,2881.4,2945.64,2784.407978494624,1.0034398989198863
89.77,13363227,126.46,92.87548387096774,0.9964536879799173,-0.03132778910612166,640.65,956390016,1068.59,649.6217634408601,0.9983574109782848,-0.32862644938849894,468.23,708367552,734.16,477.87107526881726,0.9986521951040841,-0.14972981739613667,2859.53,2945.64,2792.2965161290326,1.002833111273684
84.11,16535415,126.46,92.23092473118281,0.9930599646653748,-0.02996997249668143,603.89,1067350016,1068.59,646.4798709677418,0.9951635049040282,-0.31761513922563933,452.22,708367552,734.16,476.32610752688174,0.996766977911215,-0.14490662201369264,2826.06,2945.64,2797.828387096774,1.001981118744298
79.02,14450012,126.46,91.29823655913978,0.9898874680617,-0.010926698832069759,576.03,935929984,1068.59,641.7734838709679,0.9927199789071101,-0.3291401883109516,432.1,708367552,734.16,473.5698924731183,0.9942135965041389,-0.14815751838454383,2752.06,2945.64,2798.2261290322585,1.0001421609478691
81.64,17520448,126.46,90.57705376344086,0.9921008025688233,-0.018868201035921572,587.94,1149869952,1068.59,638.1242365591398,0.9943138079033478,-0.30814885023777805,449.69,708367552,734.16,472.0966666666667,0.9968891058535035,-0.14392236413927073,2873.34,2945.64,2806.386021505376,1.0029160947317504
82.19,15910097,126.46,89.93475268817203,0.9929087881689515,-0.02526190055333566,582.07,1088770048,1068.59,634.3725591397848,0.9941207727203959,-0.2908770508719851,447.48,708367552,734.16,470.6012688172043,0.9968324329421325,-0.15113341349498344,2886.98,2945.64,2815.2273548387097,1.0031504337840849
89.14,17413504,126.46,89.78240860215054,0.9983060598771011,-0.03024401105704011,619.35,1233680000,1047.84,633.2736559139786,0.9982677320921693,-0.20502226375594224,470.57,879329600,730.37,470.69780645161296,1.0002051367916014,-0.11945899899013868,2950.46,2945.64,2827.840064516129,1.0044801744540246
89.9,14223996,126.46,89.69638709677419,0.9990418890881226,-0.035893479766620606,630.01,1187110016,1047.84,632.9362795698925,0.999467250309664,-0.15350634552311304,471.28,771535104,730.37,470.8388387096774,1.0002996237843715,-0.09691479092459754,2941.76,2950.46,2839.2078279569896,1.0040199456763852
85.47,15735109,126.46,89.34563440860214,0.9960895561178665,-0.09275975728806252,617.95,922070016,1037.82,631.9110107526882,0.99838013896454,-0.16700283261354165,466.84,523452640,727.81,470.72597849462363,0.9997602996911574,-0.14525524043215843,2990.41,2950.46,2853.323784946237,1.0049717941921161
87.72,16178230,126.46,89.17124731182794,0.998048174396785,-0.10398723890201389,629.67,1025400000,1037.82,631.715311827957,0.9996903061959656,-0.12074313003913839,476.89,650408896,727.81,471.27118279569896,1.0011582201237732,-0.1131926299379531,3013.77,2990.41,2868.1783870967743,1.0052060695771394
83.99,16600594,126.46,88.77526881720429,0.995559347810411,-0.08618451668400395,609.13,1235830016,1037.82,630.1780645161291,0.9975665504966476,-0.09876077903765879,464.01,765670720,727.81,470.94034408602147,0.9992979865483926,-0.11378971825875261,2976.61,3013.77,2879.745634408602,1.004032959513211
81.34,14060062,126.46,88.20879569892475,0.9936190210874386,-0.08268787409809653,600.74,1087640064,1037.82,627.998494623656,0.9965413428121358,-0.14692039619056474,461.46,709915456,715.72,470.33972043010755,0.9987246290035321,-0.12419474108398454,3025.86,3013.77,2893.2860215053765,1.0047019385792229
79.57,25134880,126.46,87.53483870967743,0.9923595262365028,-0.06451822125144147,578.11,1546409984,1037.82,624.3024086021505,0.9941144985964967,-0.28393646284083685,445.85,1016894976,715.72,468.6474838709678,0.9964020972806799,-0.15252226389904333,2932.05,3025.86,2899.612602150538,1.002186641969766
76.59,24006406,126.46,86.69240860215052,0.9903760591788949,-0.04751812580630399,557.29,1764649984,1037.82,619.3389677419354,0.9920496208378748,-0.3335452595335161,435.96,1070551168,715.72,466.31193548387097,0.9950164068570144,-0.17287862365847184,2918.65,3025.86,2904.214215053764,1.0015869750668807
73.26,23039680,126.46,85.67146236559141,0.9882233490449615,-0.061621813863032115,539.59,1090050048,1037.82,613.4176989247311,0.9904393730644903,-0.36605280869697754,419.03,829329472,715.72,462.93212903225805,0.9927520481582659,-0.19295468271682115,2888.68,3025.86,2906.1889677419354,1.0006799610985773
69.24,16916622,126.46,84.44331182795699,0.9856644149204148,-0.08284576991830062,523.29,1079309952,1037.82,606.7118494623656,0.9890680535072264,-0.35131041821274755,410.68,730344896,715.72,459.12651612903227,0.9917793286217113,-0.18465820056003157,2847.11,3025.86,2905.0130322580644,0.9995953685404069
71.59,15284931,126.46,83.42352688172042,0.9879234373432172,-0.0753181040534312,543.42,1041800000,1016.54,601.5740430107526,0.9915317189598886,-0.32014726028432416,422.09,704096192,704.64,456.173182795699,0.9935674956039715,-0.2008777509310562,2926.46,3025.86,2908.564301075269,1.0012224622670434
73.77,13271689,126.46,82.59556989247312,0.9900752579015127,-0.07110920583731817,559.51,975459968,985.14,597.7207956989248,0.993594724778112,-0.24876909944094228,433.24,577297664,684.82,454.06253763440856,0.9953731494070844,-0.16598653477969527,2978.71,3025.86,2915.0135698924737,1.0022173375416938
76.61,20385382,126.46,81.98415053763442,0.9925974316100165,-0.0914038282984092,587.62,1533200000,985.14,595.8184086021505,0.9968172646652693,-0.21424404550121434,447.81,921409472,684.82,452.9576989247311,0.997566769733012,-0.16188151964329034,3007.39,3025.86,2922.730731182796,1.0026473843449746
78.17,29606810,126.46,81.51666666666667,0.9942978750416746,-0.06615107936905418,597.85,2260610048,958.49,594.7429462365591,0.9981949829846403,-0.20413936910533315,452.25,1120975232,671.95,452.2212043010752,0.9983740322211009,-0.1358599448931198,2992.07,3025.86,2928.961032258065,1.0021316712514081
72.36,18941076,126.46,80.70449462365592,0.9900367363359958,-0.11644575919285294,582.51,725009984,910.1,592.7986666666667,0.9967308909131323,-0.2399591966325454,440.45,776053632,646.26,450.79043010752684,0.996836118740253,-0.15502907953301082,2961.79,3025.86,2932.808967741935,1.0013137544137634
68.44,17758870,126.46,79.68391397849462,0.9873541040072116,-0.10125138171100767,561.09,798179968,903.48,589.6208387096774,0.9946392795131299,-0.21139218005461013,423.76,731750016,645.6,448.38653763440857,0.9946673835277628,-0.17411167641002978,2952.01,3025.86,2935.6859354838707,1.0009809598148327
66.83,21799800,126.46,78.59167741935485,0.9862928851683347,-0.11825591186767337,573.93,787680000,903.48,587.3739354838712,0.9961892404774509,-0.20464320183224805,428.04,730030016,645.6,446.3577204301076,0.9954752941178729,-0.16951380294566276,2970.27,3025.86,2939.291634408602,1.001228230472868
62.19,26818276,126.46,77.24075268817204,0.9828108423748935,-0.19048613818137594,562.37,751320000,903.48,584.5218709677418,0.9951443801915048,-0.23347271631558242,420.67,753870016,645.6,443.9755698924732,0.9946631358020671,-0.1986183653960062,2986.2,3025.86,2943.607247311829,1.0014682493062976
69.94,22706684,126.46,76.4504946236559,0.9897688974147303,-0.156440882959192,597.36,748889984,903.48,584.0946021505378,0.9992690285198453,-0.170930667720547,438.87,755689984,645.6,442.9056559139785,0.9975901512356776,-0.1697213761164983,3022.55,3025.86,2949.86911827957,1.0021272780101556
68.66,18817604,126.46,75.62477419354839,0.9891992794268722,-0.18224787004998944,599.93,865120000,903.48,583.9480430107527,0.9997490832148672,-0.16725240817708786,437.36,843580032,645.6,441.8470967741935,0.9976099669858572,-0.18627589180122506,3066.91,3025.86,2958.588301075269,1.002955786323423
72.09,27246664,126.46,75.07737634408603,0.9927616597166772,-0.1782682688452072,611.96,1427600000,903.48,584.7152258064516,1.0013137860549088,-0.14083329444923265,446.13,925569984,645.6,441.4900215053764,0.9991918578362876,-0.17088658265859646,3093.08,3066.91,2968.621311827956,1.0033911479840032
70.91,17064456,126.46,74.51737634408603,0.9925410286391273,-0.17414357136125413,601.99,1045139968,903.48,585.0058279569893,1.0004969977481548,-0.20146156232717227,440.43,713080000,645.6,440.88019354838707,0.9986187050051325,-0.18776650150808294,3120.46,3093.08,2980.0214838709676,1.003840224415822
70.44,17807876,126.46,73.99012903225805,0.9929245051597979,-0.13194726099412213,593.14,953080000,867.41,584.8994193548386,0.9998181067656672,-0.17794818517810784,438.15,795379968,604.75,440.24466666666666,0.9985585043487542,-0.16463814197123638,3110.29,3120.46,2990.30223655914,1.0034498921379646
68.42,10296351,126.46,73.38421505376343,0.991810880905067,-0.11775181987258243,582.27,666040000,867.41,584.2695268817205,0.998923075571159,-0.16209661956366528,431.37,590910016,604.75,439.2842365591398,0.9978184173932219,-0.15721064007887564,3140.98,3120.46,3002.1965161290314,1.0039776178556379
71.37,21732074,126.46,73.01012903225806,0.9949023639316534,-0.14184321001324252,592.69,1012409984,867.41,584.4545376344086,1.0003166530927523,-0.14434009524919977,437.91,839900032,604.75,438.8384946236559,0.9989852994977116,-0.16335490713230238,3145.91,3140.98,3013.9887741935486,1.0039278768065862
72.85,17112188,126.46,72.77520430107528,0.9967822994658866,-0.12298569474801246,598.69,765550016,867.41,585.1370107526881,1.0011677095040477,-0.08899525181387913,441.35,769120000,604.75,438.6872688172043,0.9996553953030459,-0.16556182147609066,3168.8,3145.91,3026.6889677419354,1.0042137494529273
79.77,35906900,126.46,73.02311827956989,1.0034065720718415,-0.08509857480317762,624.12,1182060032,867.41,587.550365591398,1.0041244269194414,-0.014430037036677668,452.48,963990016,604.75,439.3119139784946,1.001423896259799,-0.13925223848982005,3221.22,3168.8,3042.106,1.0050936955935603
80.23,8852818,126.46,73.3100430107527,1.0039292314261945,-0.07570698585931401,628.46,495270016,867.41,590.2002150537634,1.0045099954277081,0.02868617238168425,454.96,420100000,604.75,440.09599999999995,1.0017848048198932,-0.12440276052965937,3240.02,3221.22,3057.8861290322575,1.0051872383908573
82.02,10635711,126.46,73.7098494623656,1.0054536382082637,-0.0697237568379363,631.67,593409984,867.41,592.9444086021506,1.004649597676167,0.039396954256056604,458.77,542880000,604.75,441.07673118279575,1.0022284482994523,-0.10562356572186049,3234.85,3240.02,3072.2833333333333,1.004708221200386
83.25,28024052,126.46,74.1881935483871,1.0064895545101573,-0.07382801825086771,632.55,932329984,867.41,595.6513333333334,1.004565225157556,0.05421689115438055,453.87,909459968,604.75,441.72180645161285,1.0014625012457294,-0.11678086391440878,3265.35,3240.02,3087.870838709677,1.005073589797928
82.33,19915368,126.46,74.60490322580645,1.005616927134741,-0.08227380862915512,622.99,741870016,867.41,597.6329247311828,1.0033267639757646,-0.042733685484213524,448.77,764409984,604.75,442.02410752688183,1.0006843698247487,-0.17483557006620898,3329.62,3265.35,3106.7910967741936,1.0061272828601933
77.06,15051705,126.46,74.69625806451613,1.0012245152095858,-0.0781438485209347,589.26,763580032,867.41,597.4305591397849,0.9996613881481029,-0.15357625214327675,429.71,734200000,604.75,441.1436129032257,0.99800803936106,-0.2084441311892099,3295.47,3329.62,3122.692731182796,1.005118346845114
70.36,18003792,126.46,74.38296774193549,0.9958058096791134,-0.06884964138787264,551.25,1022460032,867.41,594.863569892473,0.9957032843264529,-0.15145676781599215,405.45,996729984,604.75,438.7873548387097,0.9946587505846245,-0.2101224828858862,3225.52,3329.62,3133.320795698925,1.0034034935330007
71.75,16639873,126.46,74.1918494623656,0.9974306177156986,-0.05897619987556946,552.17,814070016,867.41,592.4993763440859,0.9960256541700571,-0.18651382006693207,408.55,839180032,604.75,436.7631182795699,0.9953867481894871,-0.24747202027707527,3327.71,3329.62,3150.0361505376345,1.0053347090606408
72.3,12203032,126.46,74.07055913978495,0.9983651799562946,-0.04775776042110913,553.44,931400000,867.41,590.3837849462365,0.996429377848626,-0.2321554796315164,409.82,793320000,604.75,434.9677849462366,0.9958894575613316,-0.25235996569056474,3380.16,3329.62,3169.4602365591404,1.0061663057480121
71.61,10697089,126.46,73.9298924731183,0.9981009098851112,-0.04294923810834095,554.68,719310016,867.41,588.4679569892473,0.9967549448243,-0.2090462051239922,405.93,670529984,604.75,433.03802150537626,0.995563433643485,-0.22341028534096763,3337.75,3380.16,3185.2803440860216,1.0049914200987282
61.05,34565080,126.46,73.12886021505376,0.9891649746635869,-0.033290726501358114,462.8,1770950016,867.41,580.7234408602151,0.9868395279011364,-0.17232935539740346,343.53,1628099968,604.75,427.2018709677419,0.9865227757199101,-0.23705548711281244,2954.22,3380.16,3175.6858494623652,0.9969878649326832
53.37,34716224,126.46,71.87217204301076,0.9828154278851415,-0.03464109374856028,407.64,1745799936,867.41,569.6681935483872,0.9809629738805584,-0.2699591360197011,318.64,1619769984,604.75,419.97995698924734,0.9830948446875133,-0.2875130273373919,2972.37,3380.16,3167.2146451612903,0.9973324803829355
33.58,72280872,126.46,69.38864516129033,0.965445222940609,-0.06890324716822616,284.51,3266919936,867.41,550.9909032258064,0.9672137385690388,-0.38577095240863213,241.29,3292879872,604.75,408.0200215053764,0.9715226041508996,-0.36266796776676924,2711.02,3380.16,3141.766623655914,0.9919651730758904
33.67,50012044,126.46,66.99625806451611,0.9655219223373905,0.027910442837780824,239.86,2269560064,867.41,529.9815268817205,0.9618698308427863,-0.24682902176767402,193.93,2519310080,604.75,393.3868387096774,0.9641361158167917,-0.3373479756061726,2304.92,3380.16,3090.5006666666673,0.9836824426730999
34.74,47963608,126.46,64.74939784946237,0.9664628998698694,0.006996034679485341,259.9,1731590016,867.41,510.8745806451613,0.9639479014504908,-0.321229512457753,217.56,2174540032,604.75,380.74430107526877,0.9678623268742884,-0.35301005538305696,2541.47,3380.16,3055.6620000000003,0.9887271771067945
38.49,49509772,126.46,62.823720430107514,0.9702595316201718,0.03633206505875641,271.6,1985730048,867.41,493.1321935483871,0.9652705619559929,-0.25433693539962887,229.26,2343450112,604.75,369.2964516129032,0.9699329722597674,-0.3063036020726341,2488.65,3380.16,3018.2435268817203,0.9877543808450411
43.25,34782104,126.46,61.281010752688175,0.9754438344807097,0.03357531204895259,312.01,1757430016,867.41,478.61606451612903,0.9705634123625033,-0.3957707626254733,259.63,1929040000,604.75,360.24662365591394,0.9754944085775422,-0.34787773919476783,2789.82,3380.16,3001.3092688172046,0.9943893665591619
40.38,34949988,126.46,59.62488172043012,0.9729748414408226,-0.0026774997940735012,310.43,1455430016,867.41,464.59070967741934,0.970696021553541,-0.36375579538895864,260.17,1785549952,604.75,351.6363225806451,0.9760988708571691,-0.3854470264621336,2874.56,3380.16,2990.31,0.9963351764739862
41.84,31026630,126.46,58.14421505376345,0.9751669668107815,0.02190338129840297,324.06,1296710016,867.41,452.06281720430104,0.9730345609325317,-0.28687060813419174,264.51,1988070016,604.75,343.7190967741934,0.977484618914373,-0.35723401346212214,2836.74,3380.16,2977.123440860215,0.9955902367514455
43.01,26996880,126.46,56.80466666666667,0.9769616223065672,0.0047903987374328105,349.92,1222109952,861.16,441.75911827956986,0.9772073735494272,-0.2111510976415848,272.28,1770749952,597.81,336.68152688172046,0.9795252287157722,-0.3163758437544003,2830.71,3380.16,2963.816774193548,0.9955303611250926
49.65,31332740,126.46,55.948193548387096,0.9849224866804446,0.07053074887856603,385.91,1042249984,861.16,434.2314838709676,0.9829598663680817,-0.179657302117452,294.75,1471280000,587.93,331.4193978494624,0.9843706036354448,-0.29777110721497313,2929.8,3380.16,2957.1638709677422,0.9977552919992444
46.01,26242740,126.46,54.89382795698924,0.9811546088528135,0.10739894840622977,355.66,1009040000,861.16,425.1565806451613,0.9791012315714469,-0.14382232880048096,272.31,1336999936,583.44,324.99617204301074,0.980619040864442,-0.31165345916212006,2863.7,3380.16,2946.333483870968,0.9963375762827679
50.45,19586092,126.46,54.160709677419355,0.9866447958385357,0.06939738930983685,389.44,897070016,861.16,418.7055698924732,0.984826741378673,-0.17683390445735603,288.94,1347160064,573.85,319.96490322580644,0.9845189905297147,-0.3194275629939166,2955.45,3380.16,2941.685892473118,0.998422584740223
49.19,20946372,126.46,53.38821505376343,0.9857369922171092,0.07683749384316207,383.71,934800000,861.16,412.33202150537636,0.9847779708573411,-0.2439234760191481,291.59,1306320000,573.85,315.4270322580645,0.985817597736526,-0.3259262453960521,3044.31,3380.16,2942.9155053763443,1.0004179959887534
57.23,23415748,126.46,53.17630107526882,0.9960306974435985,0.05118951505982505,454.49,1054889984,861.16,410.9899139784946,0.9967450805251994,-0.23934205749822468,336.52,1566889984,573.85,314.1013548387097,0.9957971978182574,-0.27829575888224267,3193.93,3380.16,2953.846623655914,1.0037143840044336
50.73,29204692,126.46,52.57698924731183,0.9887297195209444,0.04834302337383056,401.57,1123219968,861.16,406.5722580645161,0.9892511816866395,-0.2560738834484625,299.28,1833100032,573.85,310.6088172043011,0.9888808577848954,-0.29511740592295466,3041.31,3380.16,2954.71440860215,1.000293781315281
50.47,25382690,126.46,52.004301075268806,0.9891076271151775,0.041748357335660624,400.22,980809984,861.16,402.4985161290322,0.9899802756959442,-0.2525904837944214,296.4,1514950016,573.85,307.2340215053763,0.9891349005179558,-0.31948434916935486,3097.74,3380.16,2959.393053763441,1.001583450890438
47.05,19290910,126.46,51.253913978494616,0.9855706724009594,0.0587293954658914,366.21,879360000,861.16,396.6454623655914,0.9854581979090714,-0.2495198622805993,277.3,1229929984,573.85,302.9318064516129,0.985996944502814,-0.3151615688358409,3009.05,3380.16,2958.376752688172,0.9996565846250208
48.75,13300446,126.46,50.65916129032258,0.9883959557035666,0.04564425951992335,377.79,629440000,861.16,392.0041505376344,0.9882985883658514,-0.2928587622829575,283.46,923779968,573.85,299.3583440860215,0.9882037399524034,-0.34764386151585946,3130.01,3380.16,2965.448043010753,1.002390260238543
43.81,21484636,126.46,49.7943440860215,0.982928710577246,0.007058430811183403,355.81,810419968,861.16,386.4069247311828,0.985721513920771,-0.34358225578149515,270.32,1121350016,573.85,295.26929032258056,0.9863406053506699,-0.3926405456486114,3185.04,3380.16,2976.103849462366,1.0035933209070136
45.51,17745376,126.46,49.1016559139785,0.986089019049104,-0.01708010294063811,366.73,684280000,861.16,382.0365376344086,0.9886896770811894,-0.32618472294108647,278.27,1003249984,573.85,292.0609462365591,0.9891341761870449,-0.38610114148397323,3224.73,3380.16,2989.2853763440853,1.004429121948853
47.32,19144996,126.46,48.59941935483871,0.9897714944681365,-0.012700222293550834,378.65,786430016,861.16,378.98870967741937,0.9920221558496432,-0.3006781007122207,284.11,1250930048,573.85,289.60402150537635,0.9915876300380375,-0.3679997875924601,3215.63,3380.16,3001.8722580645153,1.0042106658066297
45.21,14363989,126.46,48.03182795698924,0.988321025119553,-0.028225275832902352,366.01,697040000,861.16,375.662623655914,0.9912237859952704,-0.36100106549873723,272.09,1138329984,573.85,286.7390322580645,0.9901072187035959,-0.4181264063941146,3271.12,3380.16,3018.0915913978497,1.0054030724624479
47.1,26647990,126.46,47.665333333333336,0.9923697548220716,-0.028195185937656908,375.71,813190016,861.16,373.5336559139785,0.994332766669155,-0.34986723845504275,280.59,1113129984,573.85,284.82389247311824,0.9933209658627059,-0.40809903891108434,3351.28,3380.16,3039.4045376344084,1.00706172943767
46.29,21155990,126.46,47.324322580645166,0.9928457281457908,-0.059269320690423566,387.2,640489984,861.16,372.6983225806451,0.9977636999501704,-0.2829174999611124,286.99,1048550016,573.85,283.6943010752688,0.996034070779522,-0.37347993170240956,3372.85,3380.16,3061.9243010752693,1.0074092682175135
41.87,19180064,126.46,46.7756559139785,0.9884062436238429,-0.06693105313373071,359.61,569790016,861.16,370.59006451612896,0.9943432585102125,-0.28532185810908683,269.45,893169984,573.85,281.7810107526882,0.9932558027590657,-0.40380670875785574,3397.16,3380.16,3085.9194838709677,1.0078366348858696
44.59,21215940,126.46,46.478150537634406,0.9936397390794218,-0.03704381870239082,369.77,515630016,861.16,369.6311612903226,0.9974124961308437,-0.25890099539802247,272.48,894270016,573.85,280.40784946236556,0.9951268494400859,-0.41553626851693237,3508.01,3397.16,3116.8475913978496,1.0100223313305912
41.63,20780692,126.46,46.04509677419355,0.9906826377893372,-0.04898122636699964,347.42,722579968,861.16,367.62060215053754,0.9945606340851606,-0.27661324979385216,260.32,1125330048,573.85,278.5361290322581,0.9933250070078417,-0.3926450436143515,3426.96,3508.01,3141.9391612903223,1.0080503037625974
37.68,22428078,126.46,45.421978494623666,0.9864672175057927,-0.053697237586955104,318.15,767390016,861.16,364.16197849462367,0.9905918666264042,-0.27370279414329746,243.58,1147399936,573.85,275.9031827956989,0.9905472003014221,-0.3940473754249856,3340.97,3508.01,3161.2695483870975,1.0061523747292538
39.29,26655476,126.46,44.97718279569892,0.9902074785452731,-0.056313060233367684,335.57,884860032,861.16,362.33322580645165,0.9949781888385719,-0.2424272752737836,250.65,1363120000,573.85,274.083870967742,0.9934059773811884,-0.37705226414923365,3319.47,3508.01,3179.29711827957,1.0057026361139214
36.14,20327332,126.46,44.39866666666667,0.9871375641364631,-0.0683114284237879,305.58,641390016,861.16,359.0408387096775,0.9909133723813315,-0.2855206645387399,229.09,1207549952,573.85,271.2075268817204,0.989505606164034,-0.44965440221778175,3298.46,3508.01,3196.0085161290317,1.0052563183709313
33.59,27736184,126.46,43.709204301075275,0.9844711020092631,-0.09773235639973521,296.4,880489984,861.16,355.4943010752688,0.9901221887539194,-0.21976860692946498,222.55,1330669952,573.85,268.15535483870974,0.9887459906511304,-0.42808482596806297,3348.44,3508.01,3215.2041290322577,1.0060061206991011
36.25,21765324,126.46,43.23389247311828,0.9891255895512767,-0.02160961191146704,313.28,590080000,861.16,353.2760215053763,0.9937600136959078,0.05127713205696138,233.68,1102930048,573.85,266.0278924731183,0.9920663066121835,-0.31412986650719266,3477.13,3508.01,3241.893569892472,1.0083010097614697
36.11,33587520,126.46,42.7438064516129,0.9886643095619922,-0.20719506436174484,306.94,589360000,861.16,350.58683870967747,0.9923878705827819,-0.052042728010909256,228.78,1058819968,573.85,263.6006666666666,0.990876047680989,-0.33176275850621795,3483.81,3508.01,3267.366430107527,1.0078574017517483
36.2,32518384,126.46,42.25427956989247,0.988547419559496,-0.14181345599687067,307.68,821699968,861.16,347.80113978494626,0.9920541828239079,0.044852165647271125,229.96,1288470016,573.85,261.17462365591393,0.9907965217181317,-0.3065418663849042,3465.39,3508.01,3289.1156559139777,1.006656500356385
33.04,31705512,126.46,41.55774193548387,0.9835155718781937,-0.18633012380852887,283.75,794460032,861.16,343.3688172043011,0.9872561585525976,-0.11777196763665487,216.82,1394089984,573.85,257.8741720430108,0.9873630463530356,-0.3682108670774371,3269.96,3508.01,3296.2695698924726,1.0021750265806653
33.37,29025294,126.46,40.89421505376344,0.9840336156196716,-0.1472880612059827,286.69,796739968,861.16,339.10004301075276,0.9875679619707329,-0.08223968052654851,218.58,1337539968,573.85,254.7140215053763,0.9877453778616209,-0.4160545745549594,3509.44,3508.01,3317.1935698924735,1.0063477818049582
41.18,34151736,126.46,40.755806451612905,0.9966154478825778,-0.0949967034334791,346.07,861049984,861.16,338.716688172043,0.998869493394026,0.031836615135608204,254.55,1581479936,573.85,253.96279569892477,0.997050708861602,-0.26880083212681694,3585.15,3509.44,3341.454516129033,1.007313696269267
43.8,25175000,126.46,40.784709677419364,1.0007091805640203,-0.0900431062916025,368.42,727720000,861.16,339.698623655914,1.0028989876146057,0.02264013227148398,267.24,1299810048,573.85,254.04236559139784,1.0003133131853195,-0.24377351789235813,3557.54,3585.15,3362.4060215053764,1.0062701752411147
49.63,26465092,126.46,41.18552688172043,1.0098276341175716,-0.0004890279767137962,403.95,549969984,861.16,342.8774193548387,1.0093576937837245,0.03727634222431431,289.99,1032150016,573.85,255.5838064516129,1.0060676527579433,-0.22027024083159907,3638.35,3585.15,3387.0209677419343,1.0073206347119072
51.15,46886180,126.46,41.67017204301075,1.0117673658196036,-0.06696143560232448,423.41,785139968,861.16,347.19550537634404,1.0125936727756242,-0.019097155615714456,302.94,1468370048,573.85,257.92264516129035,1.0091509659479159,-0.23479821721410787,3699.12,3638.35,3413.8196989247317,1.0079121834314075
51.72,26584224,126.46,42.18836559139784,1.0124355989663836,-0.06928348681513063,424.44,708449984,861.16,351.4993978494624,1.0123961641394326,0.02441692954780561,306.38,1333609984,573.85,260.4658064516129,1.009860170628803,-0.15416030481427012,3663.46,3699.12,3436.663333333334,1.0066915175443498
49.96,25401522,126.46,42.5807311827957,1.0093003269005014,-0.05125942320267962,405.62,685430016,861.16,354.441182795699,1.0083692460477456,-0.06790688277003043,293.33,1307219968,573.85,262.0937634408602,1.006250175450764,-0.2399148933616866,3709.41,3699.12,3460.7515698924735,1.0070091929941172
47.86,16141651,126.46,42.83866666666667,1.0060575635200737,-0.0724629461427746,401.14,362940000,861.16,357.0591397849463,1.0073861535180473,0.00038829426591835414,287.38,689120000,573.85,263.3284086021506,1.0047107002665059,-0.23082537388246505,3703.06,3709.41,3482.808709677419,1.0063735114582728
48.13,9354705,126.46,43.11688172043011,1.0064944844322132,-0.048201995268619235,404.13,325870016,861.16,359.8325161290322,1.0077672744793937,-0.10422341635962495,286.14,619209984,573.85,264.49210752688174,1.0044191924863273,-0.3257113889659716,3756.07,3709.41,3506.869182795699,1.0069083533216812
56.81,27901110,126.46,43.97466666666667,1.0198944105419878,0.011824189307902966,444.95,907420032,861.16,365.34774193548384,1.0153272024045596,0.09769889728015646,312.78,1385229952,573.85,267.48286021505373,1.0113075309359394,-0.21246824503781525,3824.68,3756.07,3534.1472043010754,1.0077784542517865
57.12,23614626,126.46,44.83937634408603,1.0196638142586494,-0.005388125296690083,455.11,698969984,861.16,371.4251612903225,1.0166346158940045,0.10005819182650688,322.58,1329280000,573.85,271.07683870967736,1.0134362945413926,-0.12812476270737694,3768.25,3824.68,3556.099913978494,1.0062116002555588
52.94,19260104,126.46,45.420107526881715,1.0129513661907183,-0.09520669850208474,446.92,449129984,861.16,376.85615053763445,1.014622028374289,0.12547741663461598,317.54,924000000,573.85,274.2893548387097,1.0118509428703828,-0.13152521088369817,3841.47,3824.68,3581.3345376344087,1.0070961514767123
49.18,30213654,126.46,45.745591397849466,1.0071660744258502,-0.09658195945244308,417.61,589180032,861.16,380.22260215053757,1.0089329883779272,0.07027747792369499,296.52,1217170048,573.85,276.0592043010753,1.0064524905219392,-0.14058083566350343,3714.24,3841.47,3596.570623655914,1.0042543040482248
54.63,25493864,126.46,46.42176344086022,1.0147811411405765,-0.030138613805237746,454.41,464910016,861.16,385.8776129032258,1.0148728947745438,0.1901456644812467,321.1,1015619968,573.85,279.3867741935484,1.0120538270074995,-0.03248802664888073,3886.83,3841.47,3621.6851397849455,1.006982906428653
58.89,18368896,126.46,47.3495053763441,1.0199850644766175,-0.022253146746277208,482.71,487169984,861.16,393.1463870967742,1.0188369937785724,0.21729876747946908,334.99,1193170048,573.85,283.5012688172043,1.0147268768735829,-0.016373670434234322,3934.83,3886.83,3648.3872043010747,1.007372828803587
60.32,14958440,126.46,48.34073118279569,1.0209342378251498,-0.047260728179782774,500.57,410070016,861.16,401.31800000000004,1.0207851659621492,0.22442163913398883,345.23,762270016,573.85,288.15443010752693,1.0164131938799996,0.0002151580382154794,3906.71,3934.83,3671.7479784946236,1.0064030413674319
62.3,30223768,126.46,49.43174193548388,1.0225691818471392,-0.06003442698104444,526.34,712819968,861.16,410.89,1.0238514096053501,0.40495499958157133,360.19,1363670016,573.85,293.641311827957,1.0190414623102708,0.15869967813214148,3811.15,3934.83,3687.4573978494623,1.0042784579570407
71.97,27209848,126.46,51.109870967741934,1.033948409798066,-0.021680412474250677,582.24,621459968,861.16,423.7236559139785,1.0312337995910792,0.537422940506004,396.54,1371990016,573.85,301.28389247311827,1.0260269258354187,0.2668266647260493,3841.94,3934.83,3703.9919139784947,1.0044839883814456
72.38,23427248,126.46,52.76096774193548,1.032304851155575,0.054917140012033405,584.17,525990016,861.16,436.23767741935484,1.0295334502351146,0.41883761373770745,400.82,1142089984,573.85,308.953247311828,1.0254555753902246,0.2274922053799755,3943.34,3934.83,3726.013182795699,1.0059452799381388
67.63,24610072,126.46,54.04950537634409,1.0244221758916763,0.11305471992928773,540.2,598710016,861.16,445.4913333333333,1.0212124178927418,0.42358128266438655,370.11,1277709952,573.85,314.39651612903225,1.0176184224136355,0.22170188434673443,3913.1,3943.34,3744.856623655914,1.0050572662885955
72.26,23655800,126.46,55.58135483870967,1.028341600014642,0.12012354309358586,554.81,498720000,861.16,455.29920430107524,1.022015851339589,0.39719166392635197,381.18,1064700032,573.85,320.3375053763441,1.0188964856241396,0.26593843295159036,3974.54,3943.34,3766.5543870967736,1.0057940171337394
72.7,15200729,126.46,57.08208602150538,1.027000622549606,0.1398662219909701,558.12,373240000,861.16,464.92268817204297,1.0211366147361067,0.48857713074007836,379.71,716380032,573.85,325.94989247311827,1.0175202310144125,0.2856144430240335,4019.87,3974.54,3790.1733763440857,1.0062707150408408
69.26,19627412,126.46,58.294064516129026,1.0212322039907062,0.17971027767016912,527.62,443790016,861.16,472.125311827957,1.0154920889841554,0.5141492862677426,364.35,860060032,573.85,330.314559139785,1.0133906062479425,0.2600037019515411,4128.8,4019.87,3819.5450322580646,1.007749422782952
68.04,17439636,126.46,59.359419354838714,1.018275528521689,0.15761075203708397,528.23,390980000,861.16,478.9168172043011,1.0143849634963418,0.3982824565594525,365.19,829900032,573.85,334.4736989247312,1.0125914516023078,0.19608685232834855,4185.47,4128.8,3850.8785591397855,1.0082034709938206
66.64,15367549,126.46,60.27262365591399,1.0153843199782047,0.14988302973292944,517.67,385220000,861.16,484.61270967741945,1.011893281397735,0.46797064994762594,358.74,869059968,573.85,337.97038709677423,1.0104542993463588,0.29862519249393404,4180.17,4185.47,3880.007784946237,1.0075643065235893
71.06,15419092,126.46,61.40539784946236,1.018794174284086,0.27360773461351595,545.94,416960000,861.16,491.6763655913978,1.0145758783724024,0.6594365953541235,371.6,931270016,573.85,342.0179354838709,1.0119760444749784,0.4210452095403787,4181.17,4185.47,3907.305376344086,1.0070354475843475
80.19,27978402,126.46,63.046623655913976,1.0267277122847593,0.30936724666267446,596.1,517440000,861.16,501.4395053763441,1.0198568417524054,0.7466230538848022,404.65,1020739968,573.85,347.87720430107527,1.0171314665381948,0.5143732967647641,4232.6,4185.47,3936.1302150537635,1.0073771655740529
79.71,22709928,126.46,64.56238709677419,1.0240419447222537,0.27525261324309036,593.06,493220000,861.16,510.3983010752688,1.0178661545468,0.7603905610740211,401.29,1101549952,573.85,353.15202150537635,1.015162871090961,0.5559726823223021,4173.85,4232.6,3959.540064516129,1.0059474275959759
77.27,17310170,126.46,65.82696774193548,1.0195869561524387,0.255077708633207,578.27,458110016,861.16,517.7875913978495,1.014477497881583,0.6815544129442852,389.91,952190016,573.85,357.32165591397853,1.0118069107769179,0.49630833367203286,4155.86,4232.6,3980.3053118279568,1.0052443584288786
77.53,21082664,126.46,67.02000000000001,1.018123761415559,0.2825143945131252,585.67,558209984,861.16,525.0723870967742,1.0140690812602484,0.7872925959273704,389.82,1000030016,573.85,361.1415053763441,1.010690226576374,0.5122205955965411,4204.11,4232.6,4002.6985806451607,1.0056260178712069
84.4,14469590,126.46,68.56058064516128,1.022986879217566,0.32359506220927425,632.33,508929984,861.16,534.7182150537634,1.0183704727081972,0.9454071598368261,415.85,931670016,573.85,366.26866666666666,1.0141970978522103,0.697217928281805,4229.89,4232.6,4024.7461505376345,1.005508176408557
82.45,15943749,126.46,69.86561290322581,1.019034731704196,0.1935052021650503,625.93,465420000,861.16,543.2078279569893,1.0158767976557004,0.5872763626881456,413.47,844689984,573.85,370.8180430107527,1.0124208723216457,0.4395859611791064,4247.44,4232.6,4046.376623655914,1.0053743695401485
76.54,25776680,126.46,70.70060215053763,1.0119513622312082,0.15531117825372553,586.59,547409984,861.16,548.5575268817204,1.0098483465248493,0.38382766222746234,391.92,1127040000,573.85,373.6353333333334,1.0075975006493925,0.295386515516205,4166.45,4247.44,4061.3576559139788,1.0037023326426122
84.58,18265076,126.46,71.98389247311827,1.0181510522335895,0.13864611742440536,632.41,431880000,861.16,556.3941720430107,1.0142859131034767,0.3369346314039312,418.03,859089984,573.85,377.86901075268815,1.0113310413701633,0.26498265697031065,4280.7,4247.44,4082.4001720430106,1.0051811531787629
82.77,20103124,126.46,73.07524731182795,1.0151610978680714,0.13517480370412538,627.92,447030016,861.16,563.4498279569891,1.0126810384948335,0.2710486089317654,413.52,826560000,573.85,381.53636559139784,1.0097053601495518,0.18843483154645213,4352.34,4280.7,4106.683225806452,1.005948229654147
79.7,20884388,126.46,73.90053763440862,1.011293705501385,0.1240169932659736,601.42,355329984,861.16,568.356,1.008707380497036,0.1361342285276581,399.42,699204736,573.85,384.0562365591398,1.0066045368017176,0.11093661598938742,4369.55,4352.34,4130.67182795699,1.0058413568399414
72.23,20525508,126.46,74.18372043010753,1.0038319450001816,0.10169073082044378,545.18,418089984,861.16,569.253182795699,1.0015785577977518,0.057537515457461774,368.6,828216704,573.85,384.38763440860214,1.000862888863442,0.09006927058435976,4327.16,4369.55,4150.40711827957,1.0047777434626999
70.86,29281112,126.46,74.33062365591397,1.0019802623130076,0.12732506756079465,542.84,468209984,861.16,569.6992688172043,1.0007836337766518,0.061442613631536025,367.17,1000337664,573.85,384.4649032258065,1.000201017957623,0.08625325782852888,4411.8,4369.55,4174.274559139784,1.0057506264277294
71.2,21912432,126.46,74.45,1.0016060183301925,0.11761153355267773,550.31,399489984,861.16,570.322559139785,1.0010940690232493,0.08905184075343531,372.99,806608384,573.85,384.746064516129,1.0007313054792868,0.13334754137367155,4395.26,4411.8,4195.550731182796,1.0050969747537153
69.32,26431100,126.46,74.39847311827957,0.9993078995067772,-0.026112101304516244,554.55,481240000,861.16,570.9050322580645,1.0010213047142271,-0.0687918602549975,374.19,882087808,573.85,384.917870967742,1.0004465450525895,0.036364529694058234,4436.52,4411.8,4218.11423655914,1.0053779603256003
66.46,34326952,126.46,74.13552688172042,0.9964657038573748,-0.0477961448911266,551.28,365700000,861.16,571.0408387096774,1.0002378792337419,-0.07993513329654123,371.14,692964096,573.85,384.7608387096775,0.9995920369774735,-0.03515997704058038,4468.0,4436.52,4241.392924731183,1.0055187429421142
63.01,22793552,126.46,73.62991397849463,0.9931798838628006,0.047460482663509884,510.72,434860000,861.16,568.3530537634408,0.9952931826166587,-0.13784515326594193,343.95,885270016,573.85,382.74518279569895,0.9947612758077506,-0.07307164766531282,4441.67,4468.0,4261.46806451613,1.0047331478458152
68.05,16885114,126.46,73.42780645161292,0.9972550894607763,0.04380606097952833,559.55,411489984,861.16,568.6783870967743,1.000572414155566,0.06173993395225352,369.21,754969984,573.85,382.3024086021505,0.9988431619431124,0.03106757021058293,4509.37,4468.0,4284.620193548388,1.0054328998086455
66.45,19087816,126.46,73.08189247311829,0.9952890601638416,0.0005023078425969718,552.5,463280000,861.16,568.2436344086022,0.9992355034092442,-0.07259758327971588,363.88,839729984,573.85,381.35944086021505,0.9975334506905585,-0.0336416800128283,4535.43,4509.37,4307.743655913979,1.005396852304531
65.61,11257302,126.46,72.65636559139784,0.9941773965161484,-0.009089210661157976,542.18,308550016,861.16,566.9321290322581,0.9976920016399143,-0.1013476249844889,357.39,581830016,573.85,379.9057634408602,0.9961881698376842,-0.06623846395833333,4458.58,4535.43,4324.514215053764,1.0038931191081348
72.56,28984404,126.46,72.66477419354838,1.0001157311142952,0.06715254424279937,568.53,577809984,861.16,567.1927311827957,1.0004596708092421,-0.09530256968474338,369.23,1179379968,573.85,379.1677849462365,0.9980574695999879,-0.06519294485952187,4432.99,4535.43,4338.507462365591,1.0032357963498226
76.33,22894224,126.46,72.89008602150537,1.0031007022378802,0.07689346418475673,604.4,523440000,861.16,569.6213763440859,1.0042818693325382,-0.08909917707722403,386.57,956280000,573.85,379.49690322580653,1.000868001693806,-0.09582533181473685,4455.48,4535.43,4352.819892473119,1.0032989294663386
82.0,27534106,126.46,73.4510322580645,1.0076957823371704,0.03021619311930479,645.79,794049984,861.16,574.5524731182795,1.0086567972674096,-0.1172940167269001,408.94,1223760000,573.85,381.2125161290323,1.0045207560025988,-0.10280500337403353,4357.05,4535.43,4359.396344086021,1.0015108485476907
88.47,27367912,126.46,74.40782795698925,1.0130263070444419,0.03528149982912687,693.42,776790016,861.16,582.4198064516128,1.0136929761882927,0.03569000762094987,429.46,1280649984,573.85,384.22533333333325,1.0079032483898855,-0.042160826945072394,4391.36,4535.43,4367.078580645161,1.0017622248478422
87.58,20357420,126.46,75.27260215053764,1.0116220862413596,0.006816383853100794,695.87,467630016,861.16,590.2102580645161,1.013376007351753,0.08410814365964248,434.44,923900032,573.85,387.49784946236565,1.008517179491112,0.031146251417721205,4471.37,4535.43,4378.959268817204,1.0027205116538773
89.91,16951684,126.46,76.24479569892472,1.0129156362422915,-0.028106661569940572,705.92,451929984,861.16,598.3143225806451,1.0137308093266708,0.07998347421331764,439.56,932460032,573.85,390.96234408602146,1.008940680905617,0.009652590160898145,4544.9,4535.43,4394.383247311828,1.0035222932089045
90.36,15037621,126.46,77.20806451612903,1.012633895971183,0.01335972572886912,686.24,424430016,861.16,604.8237419354838,1.0108795980794214,0.038524084027808714,436.19,850320000,573.85,394.083870967742,1.0079842136434338,0.0030911310067187614,4605.38,4544.9,4412.482580645161,1.0041187425662985
92.96,22644092,126.46,78.30109677419357,1.0141569700641337,0.010814000481164987,702.46,537539968,861.16,612.1040860215053,1.0120371334344842,0.13670459098922638,442.0,896289984,573.85,397.45877419354844,1.008563921221944,0.07537220831878533,4697.53,4605.38,4435.267913978494,1.0051638353051586
92.69,16806480,126.46,79.32574193548386,1.0130859618000652,0.05904777074164547,688.41,384150016,861.16,618.1019784946236,1.0097988113624643,0.13954795308142698,434.6,720120000,573.85,400.1892688172043,1.0068698813586292,0.07123052361953586,4682.85,4697.53,4455.883075268817,1.004648008122655
83.73,27240360,126.46,79.719311827957,1.0049614397907962,0.008089724386286967,646.24,448769984,861.16,621.034752688172,1.004744806351682,0.10854085323768059,411.91,831660032,573.85,401.30662365591394,1.002792065969215,0.02434502257057236,4697.96,4697.53,4476.403440860216,1.0046052298152282
85.43,19221320,126.46,80.1858064516129,1.0058517141324883,-0.005326807129270916,659.25,381209984,861.16,624.5303870967742,1.00562872591827,0.09034815338769953,418.74,720019968,573.85,402.7502795698925,1.0035973887020024,0.02797303005609808,4594.62,4697.96,4489.143182795699,1.0028459771563922
84.04,28781818,126.46,80.53172043010751,1.0043139053381391,-0.043567620258704975,650.69,607489984,861.16,627.2300860215054,1.004322766322518,-0.036264246756416485,415.28,1205639936,573.85,403.8693333333334,1.0027785300723713,-0.0459862081262139,4538.43,4697.96,4497.368623655913,1.0018322963927142
87.64,18521846,126.46,81.10161290322579,1.0070766211136999,-0.03667259476750484,673.81,418230016,861.16,631.304,1.0064950870012235,-0.03417144013373763,430.61,786200000,573.85,405.9545591397849,1.0051631199359485,-0.05587414259365864,4712.02,4697.96,4516.135720430108,1.0041729060578848
84.0,24760076,126.46,81.4196129032258,1.0039210070998152,-0.01690266999073131,638.41,542110016,861.16,632.9203870967741,1.0025603941948318,-0.0744392217589418,408.68,1041520000,573.85,406.5618924731183,1.0014960623539253,-0.06369794691972919,4620.64,4712.02,4527.849978494624,1.002593867587177
87.18,11199414,126.46,81.92830107526882,1.0062477350837769,-0.0007561544190357594,659.01,327329984,861.16,635.7364731182796,1.0044493526815008,-0.034861829981105874,418.37,601980032,573.85,407.75402150537633,1.002932220294938,-0.05084678533208442,4725.78,4712.02,4545.347935483872,1.0038645178334873
88.83,11368194,126.46,82.52268817204302,1.0072549667083677,-0.005883268327631752,669.24,284009984,861.16,639.0548387096774,1.0052197187540952,-0.10903817092595958,422.74,544929984,573.85,409.1666881720431,1.0034645070119759,-0.1102173287310515,4766.18,4725.78,4564.33047311828,1.0041762562302916
98.16,26879052,126.46,83.70948387096774,1.014381447396024,0.007627893841931632,740.42,524080000,861.16,646.8860860215053,1.012254421432189,0.0944452710148127,467.58,1073810048,573.85,413.457440860215,1.0104865640635137,0.029729451272354268,4677.02,4766.18,4576.407440860215,1.002645945076296
105.63,22653136,126.46,85.34443010752688,1.0195311948055883,0.03822258547253332,787.11,508000000,861.16,657.4833763440861,1.0163820038049611,0.2459760097841992,491.98,1031980032,573.85,419.2060215053763,1.0139036816780977,0.13616501015799276,4662.85,4766.18,4586.646387096775,1.0022373327482037
100.63,19806764,126.46,86.59423655913979,1.014644265009893,0.02276507854819343,738.02,435390016,861.16,664.4823440860215,1.010645086999542,0.11605047205429142,476.81,889699968,573.85,423.7607096774193,1.0108650351817157,0.11322620985997989,4397.93,4766.18,4578.7261935483875,0.9982732059810261
109.7,25856840,126.46,88.394688172043,1.0207918180752549,0.07637866786458236,784.26,609240000,861.16,674.2374193548386,1.014680714025946,0.200289213188946,500.72,1344579968,573.85,429.7315698924731,1.0140901694722926,0.1926041753735659,4431.85,4766.18,4572.742279569893,0.9986931050852252
113.7,21921512,126.46,90.39529032258065,1.0226326060073188,0.06123112147758025,821.16,511529984,861.16,686.0369247311826,1.017500519902373,0.3459328909042749,525.45,1125289984,573.85,437.11038709677416,1.0171707589604073,0.2855546068111541,4500.54,4766.18,4571.018989247312,0.9996231385419903
116.75,20545156,126.46,92.51954838709678,1.0234996542069348,0.06603239108684456,845.21,497489984,861.16,698.9154838709678,1.0187723993789861,0.565488758693388,534.65,1051340032,573.85,444.81172043010747,1.0176187378764538,0.42934744737421626,4418.64,4766.18,4563.730129032258,0.9984054189597114
111.62,18369420,126.46,94.21709677419354,1.0183479969010907,0.07877411661269962,812.33,531460000,861.16,709.0275268817204,1.0144681914253018,0.5302896083187335,514.82,990190016,573.85,450.8766021505377,1.0136347165370683,0.4163938228543742,4348.87,4766.18,4551.743247311828,0.9973734464173997
107.28,26154356,126.46,95.54698924731184,1.0141151926630216,0.02246907207970006,816.81,517889984,861.16,718.8490537634409,1.0138521094165627,0.4947538138763635,521.54,1012689984,573.85,457.0575053763441,1.013708636013325,0.40068883975064207,4384.62,4766.18,4542.198150537634,0.9979029799671081
118.75,27358972,126.46,97.53929032258065,1.0208515317014542,0.1304172199112592,877.66,735539968,861.16,732.0232688172042,1.0183268169927906,0.583063475686034,569.81,1665910016,573.85,466.0331397849462,1.0196378667958017,0.5470470572553673,4328.87,4766.18,4529.079161290323,0.997111753205712
116.68,28239448,126.46,99.29174193548386,1.0179666225487956,0.19425807727071054,860.76,807100032,877.66,743.4123010752687,1.01555829267076,0.5798382627143858,580.55,2098160000,573.85,475.2809892473118,1.0198437593228522,0.6232519781414363,4204.31,4766.18,4508.155548387097,0.9953801618037373
115.8,46154492,126.46,100.87941935483872,1.0159900248339533,0.14207983903975174,866.04,707400000,877.66,754.4764301075269,1.014882897439624,0.693237985490831,559.78,1632099968,580.55,482.7384946236559,1.0156907293686506,0.6226814872219308,4463.09,4766.18,4504.4944946236565,0.9991879042938635
