102.28,5066600,102.47,97.9249247311828,1.0041435864052437,0.022042580438356163,821.62,25047964,818.41,784.7746451612901,1.004108665451145,-0.04840894097645587,313.72,445836928,312.84,299.2854623655914,1.0044965248417532,0.026573981809070668,1962.87,1949.44,1876.2554623655915,1.0039344698201202
102.03,5309516,102.47,98.29053763440861,1.003733604128157,0.014657667388156659,823.04,28322744,821.62,787.9300215053763,1.004020741958907,-0.05755984198385078,312.03,445836928,313.72,300.44701075268813,1.0038810718633497,0.0329512074008278,1960.96,1962.87,1883.1453548387096,1.003672150520714
105.08,5780382,102.47,98.83141935483872,1.0055028869863538,0.015119456052222757,834.39,19662464,823.04,791.665569892473,1.0047409646607446,-0.03169273940298689,316.56,445836928,313.72,301.82952688172037,1.0046015306511744,0.03732044522205058,1985.44,1962.87,1891.2809462365587,1.0043202142505594
104.02,4942530,105.08,99.27991397849463,1.0045379761475008,0.03652306561819252,814.06,19757740,834.39,793.9209032258063,1.0028488460520517,-0.06825437026602676,313.25,445836928,316.56,302.9163440860215,1.0036007650263026,0.02490794165501531,1967.57,1985.44,1897.8757849462365,1.0034869693594708
104.78,7469284,105.08,99.75040860215054,1.004739071628908,0.03550153682585622,819.59,26590404,834.39,796.3725161290323,1.0030879813004856,-0.07657069900415392,315.22,445836928,316.56,304.0510752688172,1.0037460216490446,0.021366300429185303,1978.22,1985.44,1904.7442795698926,1.0036190432894168
104.44,5569672,105.08,100.1743010752688,1.0042495311954955,0.05312342501719347,809.78,18508484,834.39,798.0495268817203,1.002105811939417,-0.0963939131439584,316.32,445836928,316.56,305.18997849462363,1.0037457628617148,0.013427987001533692,1978.34,1985.44,1911.2766451612902,1.0034295236696407
99.19,6656546,105.08,100.23679569892475,1.0006238588438865,0.021026899524152265,784.98,23386068,834.39,798.0291397849463,0.9999744538451721,-0.11355238758313235,307.35,445836928,316.56,305.69526881720435,1.001655658305273,0.01217685784164435,1925.15,1985.44,1914.0829032258064,1.0014682636716252
100.11,5035846,105.08,100.34898924731182,1.0011192850649782,0.02145254771161631,789.25,22443924,834.39,798.2408387096774,1.0002652771862293,-0.09173483836042862,310.44,445836928,316.56,306.3605161290323,1.0021761779775067,0.028555031974280887,1931.59,1985.44,1917.1029677419356,1.0015778128058297
101.14,3876994,105.08,100.5172688172043,1.0016769433469603,0.01803855096172402,805.66,16660575,834.39,799.4632043010753,1.0015313242972808,-0.0864533162793426,313.24,445836928,316.56,307.158688172043,1.0026053358738778,0.017599525995107834,1955.06,1985.44,1921.4453548387096,1.0022650776561515
102.28,4302622,105.08,100.74533333333333,1.0022689088035588,0.02367844863946522,808.66,16070131,834.39,800.797376344086,1.001668834832964,-0.06227267177773799,315.87,445836928,316.56,308.07612903225805,1.0029868628026604,0.03073820660080373,1988.4,1985.44,1927.6884731182795,1.0032491781584358
102.93,4186724,105.08,100.99064516129035,1.0024349696391928,0.017742717177569034,812.82,15508649,834.39,802.2378924731181,1.001798852208543,-0.03733666992872808,318.09,445836928,316.56,309.0526451612904,1.0031697234449803,0.02019052836958335,2003.37,1988.4,1934.4713548387099,1.0035186607250175
101.98,3890706,105.08,101.14939784946235,1.001571954391602,0.02941341108298068,807.93,12232870,834.39,803.1881075268818,1.00118445546225,-0.06264517001258363,318.62,445836928,318.09,309.97722580645154,1.0029916606754121,0.011973361139987704,2007.71,2003.37,1941.059440860215,1.0034056260409472
99.84,4147546,105.08,101.14705376344085,0.9999768255069102,0.005541950922903105,795.91,16543654,834.39,803.2224086021505,1.000042706154321,-0.018146331096185575,312.6,445836928,318.62,310.4350107526882,1.0014768341288482,-0.004529493636490134,1985.54,2007.71,1945.7641075268818,1.002423762285498
101.41,6491370,105.08,101.23440860215054,1.000863641949611,0.010987458977604225,805.99,28939146,834.39,803.8231612903227,1.0007479281973939,-0.011387030498862805,318.54,445836928,318.62,311.22890322580645,1.0025573548266782,-0.002190900209889879,2010.4,2007.71,1951.7567096774196,1.0030798194536308
99.22,5646052,105.08,101.16655913978494,0.9993297786463865,-0.03247819010246311,805.52,24474220,834.39,804.2998709677419,1.000593052925539,-0.01491303606353922,317.78,445836928,318.62,311.9156774193548,1.0022066530017941,0.004901123094854354,1982.85,2010.4,1955.5973763440861,1.001967799904375
95.92,8894668,105.08,100.88513978494625,0.9972182571273395,-0.02622461004575183,783.44,28348000,834.39,803.2924946236559,0.9987475114936002,-0.07351575637263907,305.54,445836928,318.62,311.76731182795703,0.9995243407044325,-0.03239360349094578,1967.9,2010.4,1958.2081505376343,1.0013350264349552
91.78,10346510,105.08,100.3454623655914,0.9946505756892913,-0.020051621196440994,753.18,26763564,834.39,800.3582795698924,0.9963472644480038,-0.11281466227833015,291.68,445836928,318.62,310.71475268817204,0.9966238951299493,-0.04756312539247298,1906.13,2010.4,1956.6405161290324,0.9991994546605418
93.62,15989242,105.08,99.93634408602153,0.9959229020433499,-0.004791538978896059,760.82,35330028,834.39,797.9784731182795,0.9970265735829061,-0.1276273546632941,293.66,445836928,318.62,309.79772043010746,0.9970486362487433,-0.0302119052348645,1886.76,2010.4,1953.6834193548389,0.9984886867312531
97.92,11076694,105.08,99.81311827956988,0.9987669570307116,0.010648135391812197,789.34,24465268,834.39,797.4990537634409,0.9993992076591175,-0.10330863912781552,303.85,445836928,318.62,309.5505806451613,0.9992022543464715,-0.028346615939669695,1964.58,2010.4,1955.7034408602153,1.0010339553918328
101.84,14859102,105.08,99.93739784946234,1.0012451226054713,0.015389174349793588,799.3,25582584,834.39,797.6360430107526,1.000171773554671,-0.11447209014852833,304.39,445836928,318.62,309.31972043010757,0.9992542084250898,-0.0625533565825358,2018.05,2010.4,1960.94311827957,1.0026791778906161
103.45,10894788,105.08,100.15918279569894,1.0022192387535513,0.04429694896571257,802.43,26730868,834.39,797.9503225806453,1.000394013751819,-0.08506400503394973,305.78,445836928,318.62,309.16604301075273,0.999503176133933,-0.06620079295501169,2031.92,2018.05,1966.7486881720429,1.0029606008651422
101.95,8304744,105.08,100.26367741935485,1.0010432855055242,-0.01447401873337295,812.53,22086940,834.39,798.8227096774193,1.0010932849728698,-0.07828559313538053,309.43,445836928,318.62,309.214817204301,1.0001577605130023,-0.060669981871368295,2039.82,2031.92,1972.598924731183,1.00297457249842
107.67,9601460,105.08,100.73243010752688,1.0046751994364964,0.034663119493385075,830.97,24184996,834.39,800.8228602150537,1.0025038729037161,-0.048502018442265316,317.97,445836928,318.62,309.79320430107526,1.0018705025263783,-0.03775068482209232,2063.5,2039.82,1979.600623655914,1.003549479236224
109.41,5927556,107.67,101.28939784946238,1.0055291800400423,0.0697657758365573,818.51,17117434,834.39,801.8849247311828,1.001326216531636,-0.07400773269462313,308.03,445836928,318.62,309.68578494623654,0.9996532546442357,-0.07199044588341263,2067.56,2063.5,1986.4339354838712,1.0034518638488492
111.42,10183494,109.41,101.95062365591399,1.006528085075936,0.07665475213798367,827.67,23413520,834.39,803.4519784946235,1.0019542127743155,-0.04479502804144464,311.67,445836928,318.62,309.79572043010756,1.0003549904103286,-0.06891756432218532,2075.37,2067.56,1993.3702150537636,1.0034918249461957
109.91,9357372,111.42,102.4862365591398,1.0052536500907883,0.11271556060308141,796.1,22752478,834.39,802.8867526881721,0.9992965033112365,-0.08426405715157781,292.3,445836928,318.62,308.632752688172,0.9962460174068223,-0.097086305089637,2002.33,2075.37,1995.170817204301,1.000903295402399
113.95,10121188,111.42,103.25619354838709,1.007512784302534,0.11985124546985992,824.28,34257912,834.39,804.1184731182798,1.0015341147751955,-0.09515876703673909,306.92,445836928,318.62,308.4329892473118,0.9993527471108615,-0.08571804778144965,2070.65,2075.37,2001.1114838709677,1.002977522834356
115.8,3811934,113.95,104.11427956989249,1.0083102619999573,0.12053471012184502,834.26,11406635,834.39,805.9488387096775,1.0022762387043538,-0.09435297261579234,309.65,445836928,318.62,308.40686021505377,0.9999152845734115,-0.08355135479967046,2088.77,2075.37,2007.8553333333332,1.0033700518520439
114.7,3872514,115.8,104.86916129032257,1.0072505109150116,0.11316928531252324,823.47,13517913,834.39,807.0339354838709,1.0013463593742882,-0.10401541504564427,305.82,445836928,318.62,308.1320860215054,0.9991090529135547,-0.07822996655803927,2058.2,2088.77,2012.2716559139783,1.0021995222999027
113.48,9684874,115.8,105.51903225806454,1.0061969692495476,0.09991283615017377,818.08,24351892,834.39,807.7604086021505,1.0009001766670989,-0.16648731786863857,304.07,445836928,318.62,307.7595053763441,0.9987908411292965,-0.07216645172495839,2044.81,2088.77,2015.5902150537634,1.001649160604152
115.19,10650838,115.8,106.2548387096774,1.006973210764607,0.13027510384041785,818.29,29346750,834.39,808.4810967741936,1.0008922053672948,-0.18864564857282107,300.55,445836928,318.62,307.1704946236559,0.9980861330279045,-0.07078996460920095,2019.42,2088.77,2017.0370537634408,1.0007178238408143
113.91,5683532,115.8,106.88030107526885,1.0058864365443196,0.11443157942179649,824.69,17763832,834.39,809.6218494623655,1.0014109825111848,-0.19164995492806747,302.87,445836928,318.62,306.7594838709678,0.9986619458578154,-0.0756906000855051,2051.82,2088.77,2020.452602150538,1.0016933493515772
111.44,7897338,115.8,107.32086021505376,1.0041219863281883,0.07983283211353176,818.28,28669828,834.39,810.345505376344,1.0008938196448862,-0.19281244751983317,299.22,445836928,318.62,306.13268817204295,0.9979567194108707,-0.05958636263965256,1994.99,2088.77,2020.0063010752688,0.9997791083667124
115.43,6516854,115.8,108.0051612903226,1.0063762168314494,0.07312065813449742,843.83,22758444,834.39,812.7521935483873,1.0029699531324303,-0.11128831696383523,313.21,445836928,318.62,306.4457634408602,1.0010226783382288,-0.04480208885563042,2055.47,2088.77,2023.4413978494624,1.0017005376529593
118.39,6400366,115.8,108.85589247311829,1.007876764153047,0.0676771667646121,870.58,20235380,843.83,816.8206666666667,1.0050057977703104,-0.07002356707653057,322.63,445836928,318.62,307.3666666666667,1.003005109992275,-0.03653143111710966,2096.99,2088.77,2029.3661720430105,1.002928068092234
118.32,5180076,118.39,109.6728387096774,1.0075048416580743,0.047715642187698526,878.76,17842624,870.58,821.3072258064516,1.0054927101172573,-0.047635216344525944,325.79,445836928,322.63,308.47550537634413,1.0036075437902965,-0.03676434941913076,2110.3,2096.99,2035.8942365591397,1.0032167997111912
117.69,5790958,118.39,110.41929032258065,1.0068061666104882,0.07471171024265688,872.74,23087270,878.76,825.2570537634408,1.0048091966475892,-0.02042169372921898,322.61,445836928,325.79,309.3588172043011,1.0028634747737242,-0.04351133593814738,2104.5,2110.3,2041.764322580645,1.002883296153648
115.98,6443690,118.39,111.01563440860215,1.0054007237709945,0.07423040483785881,855.78,22954788,878.76,827.9239569892475,1.0032316030667592,-0.00401571230297848,316.08,445836928,325.79,309.78802150537626,1.0013873996059137,-0.054140543706447275,2071.26,2110.3,2045.1041935483872,1.0016357769262618
113.95,6787566,118.39,111.4468817204301,1.0038845637745104,0.07937811213664103,843.75,21920494,878.76,829.6716559139786,1.002110941361193,-0.04154176035377399,312.01,445836928,325.79,309.94251612903224,1.0004987107729513,-0.05422694811042883,2053.4,2110.3,2046.9914408602153,1.0009228123035403
114.53,6890320,118.39,111.888,1.0039581033830671,0.07464522850274835,845.15,33066812,878.76,831.4277634408603,1.002116629529723,-0.08824736359651841,309.56,445836928,325.79,309.94159139784944,0.999997016442938,-0.08017572774022086,2108.1,2110.3,2052.19623655914,1.0025426563077064
111.48,6119868,118.39,112.10600000000001,1.001948376948377,0.05843586201766637,832.84,23986026,878.76,832.3112043010752,1.0010625587682553,-0.07236384794344519,305.34,445836928,325.79,309.6819784946237,0.9991623812020359,-0.06885950695665766,2061.02,2110.3,2054.106193548387,1.0009306892563303
111.79,6149424,118.39,112.32561290322582,1.001958975462739,0.05867970606435291,838.24,18988260,878.76,833.4999784946236,1.0014282808971036,-0.05719220785128187,307.23,445836928,325.79,309.57172043010746,0.9996439635749803,-0.0652591470664593,2066.96,2110.3,2056.275397849463,1.0010560331826508
114.75,6494380,118.39,112.71509677419355,1.003467453779249,0.07102606773644671,858.24,21366596,878.76,835.9138924731184,1.0028961176254072,-0.049820830164130525,311.81,445836928,325.79,309.78144086021507,1.0006774534502578,-0.06121147869667121,2102.06,2110.3,2060.581698924731,1.0020942238961628
113.31,9180676,118.39,112.97961290322581,1.002346767528064,0.06697259603498407,846.59,19737584,878.76,837.4421505376346,1.0018282481943144,-0.07525769296841278,311.48,445836928,325.79,309.97156989247304,1.0006137521722736,-0.05737054551842424,2081.18,2110.3,2063.2903225806454,1.001314494667854
111.66,6550452,118.39,113.11208602150539,1.0011725400262528,0.06894235359570655,850.98,20275716,878.76,839.1663225806453,1.0020588551005032,-0.08593383540489619,315.3,445836928,325.79,310.42333333333335,1.001457435083537,-0.07580726804219806,2117.69,2110.3,2068.2022150537637,1.0023806114046883
112.28,9613724,118.39,113.2578064516129,1.00128828346495,0.08460454596128186,850.78,24864468,878.76,840.7798279569893,1.0019227480094555,-0.019007579023184507,321.46,445836928,325.79,311.27784946236557,1.0027527445178055,-0.01923553634112518,2108.29,2117.69,2072.217677419355,1.0019415230949682
114.53,7675702,118.39,113.5135053763441,1.0022576715260723,0.10279715234976883,862.45,23970626,878.76,843.0014193548386,1.0026422986422587,0.04794912774917304,323.43,445836928,325.79,312.22522580645165,1.0030435070973485,-0.0013029643190127782,2116.1,2117.69,2076.4350967741934,1.0020352202381029
115.85,7305944,118.39,113.80544086021507,1.0025718127803656,0.10072835658752277,864.84,24861606,878.76,845.1422150537636,1.0025394924015234,0.04907497504354863,322.44,445836928,325.79,313.0404516129032,1.002611018390157,-0.02706175614530859,2122.73,2117.69,2080.6287096774195,1.0020196214703465
114.59,6017626,118.39,113.96827956989246,1.001430851710134,0.07266582367315721,866.36,21246804,878.76,847.1573763440858,1.0023844049609971,0.056028315279565755,319.97,445836928,325.79,313.6344301075269,1.0018974496476838,-0.029143192585413757,2126.06,2122.73,2084.5296989247313,1.0018749088817085
114.44,5336238,118.39,114.08559139784946,1.001029337534968,0.05371222797166686,855.26,17460708,878.76,848.2907741935486,1.0013378834690125,0.061679305981598764,316.72,445836928,325.79,313.984064516129,1.001114783247752,-0.0037632151103739186,2107.39,2126.06,2086.8789032258064,1.0011269708952992
114.31,5238292,118.39,114.1674193548387,1.000717250583414,0.051565491617182824,845.29,19128844,878.76,848.6606021505377,1.0004359683828232,0.07076621841917619,312.82,445836928,325.79,314.05556989247316,1.000227735686059,-0.0069534853858648216,2092.83,2126.06,2088.0966236559143,1.0005835127415519
116.62,7069396,118.39,114.37492473118279,1.0018175533573124,0.09987107579811738,848.3,17938880,878.76,849.1324516129033,1.000555993127488,0.05689662934796491,313.97,445836928,325.79,314.1861290322581,1.000415719867123,-0.011942954394177141,2094.11,2126.06,2089.265935483871,1.0005599893293777
117.3,8681811,118.39,114.59475268817202,1.001921994331414,0.06525135655295178,851.07,26429344,878.76,849.7060860215054,1.0006755535105418,0.03941012645540365,315.85,445836928,325.79,314.42821505376344,1.0007705178527486,-0.02919697823496681,2109.99,2126.06,2091.3430107526883,1.0009941650957594
118.01,5953387,118.39,114.83967741935484,1.0021373119225563,0.05366786470677076,838.92,33597456,878.76,849.4526236559141,0.9997017058371582,0.0803129322894689,310.0,445836928,325.79,314.29744086021503,0.9995840888721579,-0.01001516734076513,2101.49,2126.06,2092.7717204301075,1.0006831541598262
115.91,4311751,118.39,114.93062365591398,1.0007919408918837,0.035634277171242346,831.53,31185268,878.76,848.6784946236559,0.9990886730928836,0.050680917287838634,304.42,445836928,325.79,313.80243010752696,0.9984250245521146,-0.023941180223248648,2076.78,2126.06,2092.5332688172043,0.9998860594251273
114.9,7687152,118.39,114.94675268817204,1.0001403371159487,0.013281701940852209,821.67,30943564,878.76,847.259935483871,0.9983285082056734,0.061830044509126214,299.42,445836928,325.79,313.0004301075269,0.9974442517869435,-0.012743240679517598,2076.62,2126.06,2092.2814623655913,0.9998796643019419
111.8,12878472,118.39,114.7521505376344,0.9983070235044782,-0.016004819758078104,821.92,28488872,878.76,845.8025161290324,0.9982798438899317,0.035007657941640624,299.0,445836928,325.79,312.1560215053763,0.9973022126459683,-0.05284458838713868,2126.64,2126.06,2095.0969892473117,1.0013456731000892
103.25,14529863,118.39,114.01055913978495,0.9935374509813109,-0.04952195749000676,785.16,30568326,878.76,841.9785591397849,0.9954789009061495,-0.012618445537461609,282.66,445836928,325.79,310.2744516129032,0.9939723415124295,-0.08279671993510695,2079.65,2126.64,2094.7604946236556,0.9998393894767722
108.38,11096494,118.39,113.62692473118281,0.9966350975602902,-0.027631136993602867,800.85,36424296,878.76,839.2724516129032,0.996786013732171,0.008696955962435804,288.24,445836928,325.79,308.8109247311828,0.9952831215264019,-0.07965951074849997,2103.84,2126.64,2096.0042580645163,1.000593749712224
103.92,7439187,118.39,112.96913978494622,0.9942110116260493,-0.05380679856946091,793.18,31118698,878.76,836.1201505376346,0.9962440074504881,0.0322118922774951,283.51,445836928,325.79,307.0800430107526,0.9943950113748828,-0.08363705788186904,2077.57,2126.64,2095.4550322580644,0.9997379653193267
104.7,8816453,118.39,112.38223655913978,0.9948047473237054,-0.0702919020364492,801.29,31636574,878.76,833.5446236559138,0.9969196689254951,0.04375878087367091,286.35,445836928,325.79,305.57660215053767,0.995104074997924,-0.08295993894625053,2091.54,2126.64,2095.7366451612907,1.0001343922436372
97.21,11025345,118.39,111.33466666666669,0.9906785100159328,-0.06612824507602177,758.32,32332752,878.76,828.2333978494622,0.9936281446059161,0.017405785731347212,270.68,445836928,325.79,303.0927311827957,0.9918715276292054,-0.06684019276030051,1970.89,2126.64,2088.0792903225806,0.9963462227678322
96.11,17199612,118.39,110.25204301075267,0.9902759518815881,-0.06455601933016497,758.54,54009640,878.76,823.0790967741934,0.9937767529193436,0.034448683678165226,273.04,445836928,325.79,300.8303440860215,0.992535660330931,-0.08442646691066658,1988.87,2126.64,2081.755978494624,0.9969717089493378
93.31,10267684,118.39,109.02174193548387,0.9888410133574685,-0.06392784431509324,736.07,34318256,878.76,816.6035913978494,0.9921325843388287,0.011698823383303303,262.96,445836928,325.79,297.973935483871,0.9905049186084309,-0.0951219612996228,1921.22,2126.64,2071.081311827957,0.9948722776459199
96.72,8222512,118.39,108.05901075268815,0.9911693652504154,-0.03193294892045706,739.03,28023556,878.76,810.5507956989248,0.9925878409516133,-0.028506454533290704,267.66,445836928,325.79,295.52881720430105,0.991794187382197,-0.10555468075773833,1961.05,2126.64,2063.2650322580644,0.9962259909713569
93.19,11002741,118.39,106.91513978494622,0.989414386086137,-0.03580038837687294,723.58,47914160,878.76,803.7841290322582,0.9916517672888941,-0.08280292453741744,263.41,445836928,325.79,292.92772043010757,0.9911985003736697,-0.11931741709231414,1958.03,2126.64,2055.546258064516,0.996258951674715
88.34,10016008,118.39,105.51240860215053,0.9868799574539471,-0.04354947660227937,693.1,43252004,878.76,795.3847311827958,0.9895501820127064,-0.1208186680709521,252.82,445836928,325.79,289.7775483870968,0.9892459066749115,-0.13404848723270812,1931.34,2126.64,2046.4330107526885,0.9955665082816435
92.66,13638390,118.39,104.4515053763441,0.9899452278659782,-0.02494911900437302,705.06,46814272,878.76,788.1432688172043,0.9908956482546215,-0.13836695636325447,259.67,445836928,325.79,287.2193978494623,0.9911720195305912,-0.12058000712517303,1951.36,2126.64,2038.98376344086,0.9963598870460516
95.97,9523203,118.39,103.6543010752688,0.9923677088405483,-0.03003739261859506,735.96,52047940,878.76,783.2194838709678,0.993752677792166,-0.10410407095875429,277.26,445836928,325.79,285.9173978494624,0.9954668799887871,-0.09262037420306679,2014.89,2126.64,2035.8910752688173,0.9984832207948416
100.74,13336901,118.39,103.20350537634408,0.9956509696727647,-0.0031123457635808816,746.02,39206620,878.76,779.1765376344085,0.9948380418007766,-0.06087245679299125,276.91,445836928,325.79,284.66754838709676,0.9956286344525851,-0.069899966936948,2033.11,2126.64,2034.0566881720433,0.9990989758150338
103.99,8754020,118.39,102.99204301075268,0.9979510156673431,0.03008264423216689,751.83,39785352,878.76,775.721612903226,0.9955659281763388,-0.08028004666196353,282.59,445836928,325.79,283.8543655913978,0.9971433948115745,-0.08136293549908757,2075.15,2126.64,2035.095827956989,1.00051087061191
104.26,6254649,118.39,102.81410752688173,0.998272337564443,0.03318555701396664,753.96,38714904,878.76,772.5783225806451,0.9959479144704804,-0.07126066789383712,284.64,445836928,325.79,283.2223655913979,0.997773506147481,-0.07952712429156883,2079.36,2126.64,2036.376193548387,1.0006291426545173
103.0,5123695,118.39,102.57107526881721,0.997636197367166,0.02724088330335861,746.98,45313700,878.76,769.1659569892474,0.9955831460815527,-0.09680314477217,284.65,445836928,325.79,282.6395913978495,0.9979423440224027,-0.08574375624516806,2099.2,2126.64,2038.909892473118,1.0012442194780897
100.83,7062975,118.39,102.213311827957,0.9965120435763923,0.01740665959310861,738.61,35301020,878.76,765.4528602150536,0.9951725674538068,-0.07698814666658171,278.51,445836928,325.79,281.71909677419353,0.9967432212199874,-0.07791341801747997,2023.04,2126.64,2036.5361935483872,0.9988357999863097
104.62,8289822,118.39,102.12690322580644,0.9991546247684842,0.05439252773383685,751.04,37910652,878.76,762.7739139784946,0.9965001812968517,-0.10202660771345151,285.43,445836928,325.79,281.3159569892473,0.9985690008609202,-0.08126766816454223,2089.17,2126.64,2038.5539784946236,1.0009907925784125
106.21,4803204,118.39,102.15821505376346,1.0003065972527119,0.056143477902249384,757.02,19919442,878.76,760.6956989247312,0.9972754508043886,-0.12855535777572147,285.83,445836928,325.79,281.0028602150537,0.9988870280323077,-0.10221494925562524,2090.11,2126.64,2040.693741935484,1.0010496476735145
105.96,5776639,118.39,102.18645161290321,1.0002764002789681,0.04453008782254797,759.51,39302496,878.76,758.9797634408601,0.9977442550466676,-0.12370104035014973,287.05,445836928,325.79,280.84509677419356,0.9994385699820301,-0.10094646365327609,2091.69,2126.64,2042.9745376344085,1.0011176570261646
98.73,8039854,118.39,101.76666666666665,0.9958919706124373,0.023780446554692247,716.47,38206472,878.76,754.7084301075269,0.9943722698033884,-0.15041067653780615,275.26,445836928,325.79,280.0049247311828,0.9970084147714843,-0.0943321414719096,2012.37,2126.64,2040.1904086021507,0.9986372179481583
96.29,8452125,118.39,101.22627956989245,0.9946899400906565,0.01563147178074087,714.46,55655272,878.76,750.626494623656,0.9945913742035593,-0.1809601950746721,266.87,445836928,325.79,278.72492473118274,0.9954286518309314,-0.10927074433570938,2005.55,2126.64,2037.2036129032256,0.9985360211055146
100.39,3289732,118.39,100.98976344086023,0.9976634908441051,0.007025028815453416,744.25,24428176,878.76,748.7931612903226,0.9975575957597226,-0.17018203374071306,278.29,445836928,325.79,278.2958924731183,0.9984607323565402,-0.09931970239284749,2060.99,2126.64,2038.052752688172,1.000416816355306
98.82,2983057,118.39,100.68217204301074,0.9969542319204499,-0.000892182259984553,731.5,19386820,878.76,746.3759784946237,0.9967718952032981,-0.2010514607510835,273.64,445836928,325.79,277.6495053763441,0.997677338709422,-0.10188703377976871,2043.94,2126.64,2037.9016774193547,0.999925872738761
94.49,9424258,118.39,100.1285376344086,0.994501167412582,0.012525307861478208,676.7,42873136,878.76,740.6680215053764,0.9923524374394259,-0.23234401847729147,252.23,445836928,325.79,275.70608602150537,0.9930004580695921,-0.11446965758957428,1922.03,2126.64,2029.9905806451613,0.9961180184197055
91.9,9980701,118.39,99.45539784946237,0.9932772434228091,0.004512357950366641,662.94,50987924,878.76,734.4413548387097,0.991593174693824,-0.20995537039877843,241.14,445836928,325.79,273.1799569892473,0.9908376014881983,-0.12769221279201348,1880.33,2126.64,2019.759225806452,0.9949599003383268
93.16,14424532,118.39,98.91817204301076,0.9945983242934208,-0.003928734048945892,665.56,41035580,878.76,728.7883010752688,0.992302920136241,-0.23154478487581864,242.9,445836928,325.79,270.92804301075273,0.9917566647154016,-0.12385540735383005,1906.9,2126.64,2011.7359569892471,0.9960276112545042
95.12,9460115,118.39,98.56083870967741,0.9963875865682398,0.013906937681039233,670.82,54588488,878.76,723.8474193548387,0.9932204157048896,-0.21690916486011969,244.59,445836928,325.79,268.9294623655914,0.9926232049552656,-0.13079166755663518,1940.24,2126.64,2006.2821290322581,0.9972889941455582
92.87,8217952,118.39,98.10305376344088,0.9953553058980658,-0.00979758761061067,672.18,47581536,878.76,719.3398924731184,0.9937728217837154,-0.1560842394891807,256.24,445836928,325.79,267.81116129032256,0.9958416565242354,-0.04955351551464249,1880.05,2126.64,1997.2387096774194,0.9954924488316103
91.78,7969380,118.39,97.62232258064518,0.9950997327366087,0.03191183660719543,648.51,53611304,878.76,713.626752688172,0.9920578020978311,-0.13748862304162401,251.27,445836928,325.79,266.46507526881726,0.9949737493574957,-0.03649890159136837,1864.78,2126.64,1987.6328602150538,0.9951904349661252
95.63,6147877,118.39,97.43303225806451,0.9980609934533745,0.07620618897004316,667.38,44229336,878.76,709.5039569892474,0.9942227562470235,-0.11224794075421707,256.24,445836928,325.79,265.5422795698924,0.9965368981357353,-0.015633972938024043,1917.78,2126.64,1982.0095053763441,0.9971708281990763
98.16,5482908,118.39,97.42335483870966,0.9999006761964543,0.0507730212788422,684.67,38525504,878.76,706.7499354838709,0.9961183845724229,-0.12072710880513449,264.09,445836928,325.79,265.18275268817206,0.9986460653937946,-0.009734038369804798,1948.05,2126.64,1978.6871612903224,0.9983237496707207
102.49,7874980,118.39,97.71501075268816,1.0029936960645767,0.11163339864570232,693.72,50628272,878.76,704.829634408602,0.9972829129811606,-0.1328623244406535,272.64,445836928,325.79,265.4267741935484,1.0009202012683807,-0.0009990971816927763,1999.99,2126.64,1979.050817204301,1.0001837864626066
105.01,6458182,118.39,98.17232258064517,1.0046800570806307,0.11469317211192753,711.76,40001728,878.76,704.2870967741935,0.9992302570608232,-0.12313228899860729,278.48,445836928,325.79,266.07094623655917,1.0024269294044204,0.00567353798617376,2022.19,2126.64,1981.013569892473,1.000991764673807
108.9,7238868,118.39,98.87993548387098,1.007207865563581,0.1598821881523086,728.27,50219200,878.76,705.002258064516,1.001015440001099,-0.0993187725635144,285.21,445836928,325.79,267.1662365591398,1.0041165348493437,0.013753496947839228,2049.58,2126.64,1984.8925591397851,1.0019580831278823
108.95,6442031,118.39,99.56563440860216,1.0069346619349588,0.18592112195161414,718.85,28192486,878.76,705.1743010752688,1.000244031857749,-0.13207845719507594,280.51,445836928,325.79,267.9270537634409,1.0028477296162108,0.0036919235578218856,2035.94,2126.64,1987.722322580645,1.0014256506871517
113.11,6599145,118.39,100.49210752688171,1.0093051495506717,0.2223715687601685,728.58,35557440,878.76,706.0594408602151,1.0012552070936174,-0.17896226856872322,283.74,445836928,325.79,268.8801935483871,1.0035574600308477,0.00013605196806865116,2072.78,2126.64,1992.827634408602,1.0025684230488134
111.83,5155195,118.39,101.29341935483872,1.0079738782246421,0.18689949690049856,716.36,34784156,878.76,706.1723010752688,1.0001598452035656,-0.17388909137062714,280.54,445836928,325.79,269.5821935483871,1.002610828230729,0.003986230432913684,2047.6,2126.64,1995.9824946236558,1.0015831074201207
115.35,5177179,118.39,102.28933333333333,1.009831971166911,0.2187633779568232,737.35,36825532,878.76,707.6881075268817,1.002146510772661,-0.09226286314454635,289.36,445836928,325.79,270.8255268817204,1.0046120751410463,0.03585059647268518,2080.73,2126.64,2001.0886451612903,1.0025582140882439
113.19,10390611,118.39,103.09823655913976,1.007907991962079,0.18557019257745755,759.45,42763364,878.76,710.6001075268819,1.0041148070301429,-0.002517874321062097,296.62,445836928,325.79,272.48144086021506,1.0061143201586675,0.09027748571598826,2091.58,2126.64,2006.630924731183,1.0027696322115935
110.39,7649654,118.39,103.67305376344085,1.0055754319713446,0.12813022285719322,749.63,37796816,878.76,712.735870967742,1.0030055771428086,-0.011961322670196006,295.62,445836928,325.79,273.97864516129033,1.0054947019376757,0.08005490344210742,2065.3,2126.64,2010.13311827957,1.001745310263698
108.31,5737903,118.39,104.07554838709677,1.0038823455955521,0.12436966304946018,739.06,42548640,878.76,714.0938494623656,1.001905303984181,-0.07960879418236066,289.67,445836928,325.79,275.0146666666667,1.0037813950965648,0.02379054494149324,2057.14,2126.64,2012.8638279569889,1.0013584720596793
106.7,6165285,118.39,104.34763440860213,1.0026143126384823,0.050462701049099,752.51,46079960,878.76,716.3129032258065,1.0031075099794118,-0.04057710161533423,288.04,445836928,325.79,275.9188387096774,1.0032877229929944,0.033553491114258316,2046.61,2126.64,2014.8243225806452,1.0009739827386368
106.21,6772045,118.39,104.57529032258066,1.002181706516576,0.012955351790622682,758.14,42030564,878.76,718.8812258064517,1.0035854758012581,-0.002303741290893946,289.96,445836928,325.79,276.92294623655914,1.0036391408849696,0.03708180118426163,2052.32,2126.64,2017.1241720430105,1.0011414640157905
108.6,4789002,118.39,104.95236559139785,1.003605777881697,0.0036936556285962485,782.56,49555176,878.76,723.0114623655913,1.0057453671216776,0.004220424459111527,295.58,445836928,325.79,278.2737849462365,1.0048780309758925,0.028960444827491383,2099.06,2126.64,2022.4886021505379,1.002659444659817
107.67,4904564,118.39,105.26010752688171,1.0029322058035544,-0.009574649715735628,788.0,46071248,878.76,727.4311612903225,1.006112902982576,-0.011027967055436738,298.56,445836928,325.79,279.7933548387097,1.0054607008445542,0.0489003757221641,2099.13,2126.64,2027.8151827956988,1.0026336764714012
109.24,8027770,118.39,105.65909677419356,1.0037905076926694,0.01085251091023376,792.2,46125272,878.76,732.0336129032258,1.0063269926528022,-0.017899567566374452,299.21,445836928,325.79,281.32494623655924,1.0054740091977252,0.0382249437895501,2096.07,2126.64,2032.944494623656,1.0025294769816673
108.18,6272692,118.39,105.9716129032258,1.0029577777832053,-0.010590218993697054,784.55,47315944,878.76,736.0272688172042,1.0054555635746556,-0.009378355908803426,296.73,445836928,325.79,282.6520215053763,1.0047172328176726,0.04818132029661537,2071.22,2126.64,2036.3135268817207,1.0016572180238932
102.73,9693515,118.39,105.92486021505377,0.9995588187544646,-0.030968758413777442,755.66,63577144,878.76,738.0849892473118,1.0027957122205735,-0.04859533073029898,289.15,445836928,325.79,283.46576344086026,1.0028789531776565,0.03682927975819661,2037.41,2126.64,2037.5398709677422,1.0006022373616992
104.52,10500938,118.39,106.0010752688172,1.0007195199843426,-0.01382702887969467,759.69,62437412,878.76,740.4056344086023,1.0031441435540602,-0.1029130317905318,290.79,445836928,325.79,284.37817204301075,1.0032187612044403,0.007645882128322956,2102.95,2126.64,2043.1079354838712,1.0027327389247527
106.32,6547309,118.39,106.19651612903226,1.0018437629969263,0.004716992634942185,768.17,37558832,878.76,743.2729892473118,1.0038726810081608,-0.06772064142962653,294.27,445836928,325.79,285.5070537634409,1.003969649682745,0.01065820510041493,2129.9,2126.64,2050.390494623656,1.003564451497302
109.27,6236178,118.39,106.5659569892473,1.00347884162006,0.027279356922381703,791.28,39273828,878.76,747.5201290322581,1.005714104839525,-0.021595565773447456,305.77,445836928,325.79,287.3369892473118,1.0064094230238776,0.0678849689694192,2161.74,2129.9,2059.4744946236556,1.004430375591293
107.65,8504278,118.39,106.80296774193549,1.0022240756746745,0.010631698619254726,790.16,34765872,878.76,751.5298064516129,1.0053639725053902,-0.05729122656546126,304.93,445836928,325.79,289.02907526881717,1.0058888555418424,0.04039484712429564,2175.03,2161.74,2069.0800215053764,1.0046640669291105
104.71,9854122,118.39,106.834688172043,1.0002969995195654,-0.010758950143477053,782.97,43463244,878.76,754.9768817204301,1.0045867445831493,-0.04750125713342812,305.29,445836928,325.79,290.68709677419355,1.005736521503362,0.05222661038604448,2173.6,2175.03,2078.3480430107525,1.0044792958266704
104.43,7877063,118.39,106.83567741935484,1.0000092596077994,-0.05955911369636757,788.19,44081624,878.76,758.6500430107526,1.0048652632673363,0.03151628497551018,305.55,445836928,325.79,292.2938279569893,1.0055273563932692,0.07568368139370851,2182.87,2175.03,2087.9352903225804,1.004612917140644
103.99,5432394,118.39,106.78690322580644,0.9995434653036649,-0.05384535461827933,785.85,38041376,878.76,761.9324731182795,1.0043266722750062,0.024856568514972865,302.87,445836928,325.79,293.61298924731176,1.0045131342647324,0.0944675308527212,2184.05,2182.87,2097.0377204301076,1.0043595364998696
104.73,5694343,118.39,106.75987096774193,0.9997468579268812,-0.06507425340233941,791.53,33498920,878.76,765.3170322580646,1.0044420723084992,0.0643796108784398,306.72,445836928,325.79,295.04778494623656,1.004886690137936,0.11749565795391814,2183.87,2184.05,2105.475376344086,1.0040236071253157
105.75,6142443,118.39,106.77376344086021,1.0001301282306951,-0.07665762380269991,797.21,34123072,878.76,768.7971397849462,1.0045472756781768,0.07090678906392012,305.0,445836928,325.79,296.23436559139793,1.0040216558323851,0.1290611941410178,2169.04,2184.05,2112.360623655914,1.0032701628283982
107.04,5322774,118.39,106.84802150537635,1.0006954710794405,-0.05325884834432815,810.54,39904744,878.76,772.8654408602151,1.0052917744678485,0.03415046049326986,307.89,445836928,325.79,297.4774838709678,1.0041964013091058,0.04203585056704329,2179.98,2184.05,2119.459634408602,1.0033607001916187
100.86,6040987,118.39,106.49309677419355,0.9966782283267178,-0.1034085210915403,779.73,29382256,878.76,774.6484516129032,1.0023070131725693,0.027117933936097405,296.85,445836928,325.79,297.89726881720424,1.0014111486381219,0.04034700431340221,2127.81,2184.05,2122.5478279569893,1.0014570664608335
100.21,7307468,118.39,106.07670967741939,0.9960900085603007,-0.10786541794612092,771.33,56324864,878.76,775.6073333333333,1.001237828228319,0.03494951924831069,293.91,445836928,325.79,298.02935483870965,1.000443394536747,0.031575059353786905,2139.16,2184.05,2125.802623655914,1.001533438095507
103.27,6526798,118.39,105.84789247311828,0.9978429081652613,-0.08653444983501712,779.56,38659832,878.76,776.8736344086022,1.0016326574296646,-0.0032441353566228237,297.33,445836928,325.79,298.3010752688172,1.0009117237134397,0.01465753744143683,2164.69,2184.05,2130.228430107527,1.0020819460858514
103.36,6399061,118.39,105.61389247311828,0.9977892804992842,-0.12604691444576477,787.05,42218344,878.76,778.4190967741935,1.001989335584503,0.05583980188794735,299.87,445836928,325.79,298.6651827956989,1.0012206041381297,0.015734872725126747,2168.27,2184.05,2134.419311827957,1.0019673391178139
93.73,12036844,118.39,104.75673118279569,0.991884010045925,-0.1820642891827544,764.89,37332452,878.76,778.3341720430107,0.9998909010178004,0.07253913252408539,294.22,445836928,325.79,298.6062150537635,0.9998025623831227,-0.008532119742488131,2153.74,2184.05,2137.3108817204293,1.0013547337566
92.6,14637084,118.39,103.8509247311828,0.9913532386760685,-0.17642692558838802,747.75,34657392,878.76,777.029182795699,0.9983233560928125,0.03355735881403521,290.71,445836928,325.79,298.2869462365592,0.9989308031745192,-0.02140722725184019,2132.98,2184.05,2138.5801935483873,1.000593882639542
92.38,10181102,118.39,102.96597849462366,0.9914786869847348,-0.2022098360088489,754.88,38840688,878.76,776.1423010752687,0.9988586249524899,0.039629473930830716,295.3,445836928,325.79,298.25197849462364,0.9998827714642672,0.001044105766318859,2141.16,2184.05,2140.1978924731184,1.0007564359426928
92.87,13218995,118.39,102.14827956989247,0.9920585523812229,-0.20831305750016715,749.98,37378972,878.76,774.8618064516129,0.9983501806023434,0.08282431927719058,293.05,445836928,325.79,298.0400430107527,0.9992894079531655,0.006938264425328633,2126.41,2184.05,2140.637698924731,1.0002054980304202
92.81,9800989,118.39,101.3702365591398,0.9923832000496855,-0.20474092854309955,741.19,44298552,878.76,772.9681935483871,0.9975561927462946,0.10311206198802303,291.16,445836928,325.79,297.6861505376344,0.9988126009191807,0.019502370285710224,2085.18,2184.05,2138.3021720430106,0.998908957418206
95.77,11825064,118.39,100.82406451612904,0.9946121064569864,-0.2028492949231937,761.76,57109456,878.76,772.3482795698925,0.9991980084256133,0.11290769331516615,301.58,445836928,325.79,297.98167741935487,1.0009927464921924,0.001995252017266358,2164.45,2184.05,2141.000021505376,1.0012616783061057
95.19,7813122,118.39,100.28258064516127,0.994629418348026,-0.1772615307746127,773.3,41045600,878.76,772.4203870967741,1.0000933614132237,0.08078530403968165,302.39,445836928,325.79,298.30318279569894,1.0010789434408467,-0.0237301675901751,2181.9,2184.05,2144.6436344086023,1.0017018275883363
98.13,5089910,118.39,99.96948387096775,0.996877854836012,-0.1595380332674119,785.97,26394960,878.76,773.280129032258,1.0011130492538076,0.09462310914460703,310.51,445836928,325.79,299.1361505376344,1.0027923528476261,-0.02131578444538129,2213.35,2184.05,2150.122043010753,1.0025544610369084
94.58,9952773,118.39,99.45372043010752,0.9948407912005834,-0.18750508244541952,783.95,43757928,878.76,773.9313978494624,1.000842215896611,0.14842616448438772,312.64,445836928,325.79,300.0745161290323,1.003136918054576,0.013764401311713526,2191.95,2213.35,2153.9014193548387,1.0017577496851267
99.3,7423668,118.39,99.27199999999999,0.9981728141559547,-0.1555182949926891,817.35,159149280,878.76,776.6409677419354,1.0035010466043917,0.12325665407815722,322.05,445836928,325.79,301.57058064516133,1.0049856433509525,0.01403842487761997,2259.53,2213.35,2161.7508817204302,1.003644299732131
95.92,8985676,118.39,98.88812903225805,0.9961331395787136,-0.15398380434167136,801.43,171783952,878.76,778.184,1.0019868025537604,0.07331423345058974,317.14,445836928,325.79,302.6767311827957,1.0036679656724736,-0.006515330105292705,2258.07,2259.53,2169.048258064516,1.0033756786712993
94.69,7075714,118.39,98.44703225806451,0.9955394365480446,-0.1468564381227142,797.25,138156720,878.76,779.364258064516,1.0015166825127682,0.05609509035662685,316.19,445836928,325.79,303.6631397849463,1.0032589508889431,-0.008750669598021288,2263.79,2259.53,2176.272193548387,1.0033304632375109
94.76,4754213,118.39,98.04036559139786,0.995869183079073,-0.1273907182078723,793.9,75870360,878.76,780.2967956989247,1.0011965363111783,0.038113074014828996,312.16,445836928,325.79,304.3452258064516,1.002246193008438,-0.020999397959126753,2238.83,2263.79,2181.531548387097,1.0024166806221673
95.59,5734246,118.39,97.71501075268816,0.996681419568898,-0.14760002573609698,810.14,158516816,878.76,782.264387096774,1.0025215935893814,0.03318658478367553,317.88,445836928,325.79,305.36709677419356,1.0033576047234984,-0.023911493301549847,2276.98,2263.79,2188.9517634408603,1.0034013787512033
96.32,6307880,118.39,97.46610752688171,0.9974527636655907,-0.1497952455078594,816.06,129612144,878.76,784.5753333333334,1.0029541754356683,0.08053095765119023,319.43,445836928,325.79,306.44881720430106,1.0035423607897984,-0.021712125257917103,2274.64,2276.98,2195.831956989247,1.0031431453462325
99.0,10579755,118.39,97.41561290322579,0.999481926333808,-0.12228659127663244,820.63,112862688,878.76,787.1133548387097,1.0032348984189872,0.11757115775924443,321.0,445836928,325.79,307.5830107526882,1.003701086395876,-0.0046521761005098305,2271.31,2276.98,2202.059849462366,1.002836233644062
102.02,9637813,118.39,97.56797849462366,1.0015640777372024,-0.1297251829364987,840.07,160083312,878.76,790.7658494623655,1.0046403667288866,0.18900252132886108,332.05,445836928,325.79,309.3616129032258,1.0057825110242116,0.05071265556933824,2294.69,2276.98,2209.2931182795696,1.0032847739442547
100.94,9104356,118.39,97.65604301075268,1.0009025965023337,-0.14000924901473744,836.85,127980496,878.76,794.037741935484,1.0041376249054546,0.1741684681136425,327.2,445836928,332.05,310.7385806451613,1.004450997423414,0.03325245382415831,2297.42,2294.69,2216.2901720430104,1.0031671006918672
100.54,5749843,118.39,97.72987096774192,1.0007559998819644,-0.1361697483350064,835.81,128969536,878.76,797.0948387096774,1.0038500648177526,0.13568865346996972,327.36,445836928,332.05,312.0550537634408,1.004236593716642,-0.0007968145128538495,2316.1,2297.42,2224.132129032258,1.0035383259323027
102.37,5574880,118.39,97.9405376344086,1.0021556016045106,-0.12331128053883023,848.84,163768112,878.76,800.896817204301,1.0047697943958314,0.16305727316349294,328.18,445836928,332.05,313.378,1.004239464224675,-0.004731185894308432,2351.16,2316.1,2233.9040645161294,1.0043935948572098
103.31,7084558,118.39,98.22320430107527,1.0028861049111433,-0.10394844379223234,853.89,119967824,878.76,804.8984086021505,1.0049963881887032,0.15937991369667803,329.22,445836928,332.05,314.7180430107527,1.0042761234379973,-0.010748748304540978,2367.34,2351.16,2244.3410967741934,1.0046721040638442
102.06,6583449,118.39,98.42823655913979,1.0020874116205378,-0.11810309548195597,863.39,165661440,878.76,809.3603870967743,1.0055435300243327,0.15352402731928005,330.17,445836928,332.05,316.0679139784946,1.0042891438788457,-0.011161014636227762,2383.12,2367.34,2255.3795483870967,1.004918348475982
102.09,23534292,118.39,98.6403010752688,1.002154508945221,-0.1089753204829167,857.13,173588512,878.76,813.2567741935483,1.0048141559173047,0.18012232230594516,326.37,445836928,332.05,317.1196774193549,1.0033276501484167,-0.008739395489747892,2372.6,2383.12,2265.3086451612903,1.0044024061410393
104.49,8608300,118.39,99.01129032258065,1.003761031173544,-0.10222464806175502,870.63,144389984,878.76,817.8708387096774,1.0056735641958896,0.15510139289330183,329.38,445836928,332.05,318.31509677419353,1.0037696158263236,-0.015128673624547506,2378.25,2383.12,2275.196774193548,1.004365025072137
103.79,9796646,118.39,99.33763440860214,1.0032960290180872,-0.09984284257542031,862.03,124604456,878.76,821.7599569892474,1.0047551741613696,0.12505486466118054,324.4,445836928,332.05,319.1404946236559,1.0025930213735603,-0.01704663481857671,2343.98,2383.12,2282.4559139784947,1.0031905547103808
105.08,6467201,118.39,99.75141935483872,1.0041654399030138,-0.09986148303279196,876.64,138997792,878.76,826.4522580645161,1.005710062939134,0.1318518931525825,328.73,445836928,332.05,320.2035268817204,1.0033309225120994,-0.01613994570704458,2362.72,2383.12,2290.547870967742,1.0035452851201592
106.05,6560013,118.39,100.23200000000001,1.0048177825265,-0.0792031474950452,881.61,148847264,878.76,831.323053763441,1.0058936201715172,0.1364243020500222,329.74,445836928,332.05,321.28690322580644,1.0033833991606416,0.003771165374565566,2355.54,2383.12,2297.783612903226,1.0031589568710595
104.42,4216059,118.39,100.59625806451612,1.0036341494185101,-0.08229299700452852,867.21,93532688,881.61,835.0457204301075,1.0044780024441928,0.11482561622712528,321.77,445836928,332.05,321.78535483870974,1.0015514221336093,0.006069181146981295,2328.95,2383.12,2302.8141290322583,1.002189290628057
105.94,7460330,118.39,101.04952688172042,1.004505821845914,-0.09799736044749396,876.11,121986648,881.61,839.1363870967745,1.004898733765811,0.1488812477132544,327.37,445836928,332.05,322.585182795699,1.002485594651721,0.01603189914024994,2348.69,2383.12,2308.710043010752,1.0025603082351122
109.84,8534659,118.39,101.74866666666667,1.0069187833582298,-0.0721518099782017,893.18,136608896,881.61,844.1207096774195,1.0059398241540802,0.16193559277860314,333.17,445836928,332.05,323.6946021505376,1.0034391516226002,0.01146181471890828,2384.2,2383.12,2316.501225806451,1.0033746909098809
110.56,5059168,118.39,102.4803225806452,1.007190815741846,0.02268607577804249,884.88,184201056,893.18,848.3413118279569,1.0049999983440168,0.12733370376658737,335.48,445836928,333.17,324.88144086021504,1.003666538464937,0.026224221895785105,2399.29,2384.2,2324.8015913978493,1.0035831475066492
107.12,5241643,118.39,102.95384946236557,1.0046206615064832,-0.012491094594077268,874.34,140394048,893.18,851.6238709677419,1.0038693849916516,0.16472407145608425,329.84,445836928,335.48,325.61567741935494,1.0022600138598123,0.013681465517166425,2390.9,2399.29,2332.032602150538,1.003110377582089
106.73,5033174,118.39,103.37098924731185,1.004051716250773,-0.012239650563254934,881.38,164091312,893.18,855.0883870967741,1.0040681294256057,0.1561598348749853,328.42,445836928,335.48,326.1741505376344,1.0017151296973954,-0.00019785680418049623,2381.73,2399.29,2338.1173333333336,1.0026091964482762
107.24,4283681,118.39,103.79017204301076,1.0040551299620053,-0.0326592421130083,890.52,108308208,893.18,858.8705376344086,1.0044231106335988,0.13306011297556175,331.59,445836928,335.48,326.86591397849463,1.0021208407831217,-0.004589239457569727,2415.82,2399.29,2345.884064516129,1.0033217884629095
110.42,6184587,118.39,104.3836129032258,1.005717698010647,-0.024709949952364862,900.14,102637688,893.18,862.9710967741937,1.0047743623283194,0.1314870489347475,337.11,445836928,335.48,327.8309247311827,1.0029523138125425,-0.011899755230476705,2439.07,2415.82,2354.528408602151,1.0036848982508457
109.93,7150379,118.39,104.90756989247313,1.0050195329963632,-0.033830285956273576,900.16,117781296,900.14,866.7311182795698,1.0043570653981706,0.08689124126155257,341.93,445836928,337.11,329.00808602150533,1.0035907573127456,0.010290528052790293,2431.77,2439.07,2361.9407311827954,1.0031481134623663
111.16,7614201,118.39,105.48043010752691,1.0054606184819737,0.012357852509128797,893.48,148028560,900.16,869.7625376344087,1.0034975314614942,0.049351265140739065,339.25,445836928,341.93,329.9255698924731,1.0027886362370675,0.006743633526983928,2433.15,2439.07,2368.867204301075,1.0029325346850728
110.68,6126471,118.39,105.98797849462366,1.004811777754218,0.003064925076447844,884.08,159303024,900.16,871.9290537634411,1.0024909283112204,0.03073652978288255,338.11,445836928,341.93,330.69023655913975,1.002317694463378,-0.012747244618867448,2438.3,2439.07,2375.585612903226,1.0028361271539208
109.96,5281229,118.39,106.42208602150538,1.0040958185357194,0.02904646860812754,888.66,132353136,900.16,874.1800645161289,1.0025816443929376,0.04304168353816307,337.42,445836928,341.93,331.35103225806455,1.0019982316557043,-0.026334983049425942,2423.41,2439.07,2380.8596129032258,1.0022200841642388
111.0,2598294,118.39,106.89021505376346,1.0043987958680258,0.02493922866562559,893.27,87400256,900.16,876.503311827957,1.002657630168121,0.05721843774695068,339.41,445836928,341.93,332.08692473118276,1.0022208848063738,-0.019407033229427606,2425.18,2439.07,2385.7500430107525,1.002054060676666
112.8,4803652,118.39,107.44931182795699,1.0052305702061908,0.043604105201568544,907.52,126000056,900.16,879.5826451612902,1.0035132021656727,0.07821583572252777,346.3,445836928,341.93,333.23,1.0034420965828226,0.0028441335445343885,2459.27,2439.07,2392.4835913978495,1.0028224031292898
106.37,9779818,118.39,107.55726881720427,1.0010047248084766,-0.008904746723319423,902.69,108329640,907.52,882.1222150537635,1.0028872442020587,0.06636088491380021,346.24,445836928,346.3,334.30649462365596,1.0032304853214176,0.0028251768369405017,2472.54,2459.27,2399.640580645161,1.0029914475790114
106.03,9060570,118.39,107.61817204301076,1.0005662399805817,-0.013313835960362841,898.89,137728736,907.52,884.1898709677419,1.0023439562893814,0.07310693771914334,344.73,445836928,346.3,335.22094623655914,1.0027353689731113,0.00014470422379342374,2472.1,2472.54,2406.320258064516,1.0027836157936447
105.01,8616935,118.39,107.58903225806452,0.9997292298838286,-0.015693641158779137,902.69,188876608,907.52,886.2769032258064,1.0023603892405828,0.0792438886112401,342.01,445836928,346.3,335.88987096774196,1.001995474145314,-0.01186061710912556,2476.83,2472.54,2412.803440860215,1.0026942310666966
100.73,8072766,118.39,107.26350537634411,0.9969743488263786,-0.02536184568622124,874.12,174102240,907.52,886.3216774193548,1.0000505194182376,0.032766188183607214,334.78,445836928,346.3,336.0404516129032,1.0004483036202534,-0.025223182825815815,2441.32,2476.83,2416.5658709677423,1.0015593603870965
102.08,6744720,118.39,107.01559139784946,0.9976887387968086,-0.03458231954582325,874.54,134307456,907.52,886.2686881720431,0.9999402144292961,0.03296482711220694,336.2,445836928,346.3,336.24963440860216,1.0006224929013603,-0.02055592247387783,2425.55,2476.83,2418.9524301075267,1.00098758290368
103.72,4788118,118.39,106.86686021505376,0.9986101914603942,-0.034570426419151756,883.11,102148608,907.52,886.6526666666666,1.0004332529172564,-0.015123139881127567,340.5,445836928,346.3,336.70354838709676,1.001349931515295,-0.039205638639502105,2443.05,2476.83,2422.136322580645,1.001316227815599
104.59,5689691,118.39,106.77060215053763,0.9990992711461493,-0.03551344256502453,896.83,106850280,907.52,887.8292473118279,1.0013269916049365,0.011065892427081225,346.85,445836928,346.3,337.5489677419355,1.0025108715333964,-0.017915058550104224,2476.55,2476.83,2427.162451612903,1.002075080987557
103.59,4747616,118.39,106.60197849462365,0.9984206920957865,-0.038567035028113095,893.4,107867616,907.52,888.6555483870968,1.0009306981919899,0.010496964777012785,343.03,445836928,346.85,338.10567741935483,1.0016492708632574,-0.014879931653148715,2461.43,2476.83,2430.827870967742,1.001510166471306
106.3,6416297,118.39,106.60163440860215,0.9999967722360658,-0.034344402027999044,910.58,146057904,907.52,890.4663870967742,1.0020377284685433,0.018156273216301644,351.43,445836928,346.85,339.17062365591397,1.0031497437271315,0.007442521962188975,2500.23,2476.83,2436.6839784946233,1.0024091000423447
108.76,5897350,118.39,106.75154838709678,1.001406300938314,-0.0318823467145708,926.16,141880496,910.58,893.1496129032257,1.0030132814054888,0.08145453686554127,354.87,445836928,351.43,340.40750537634415,1.0036467831650566,0.020936087598817155,2502.22,2500.23,2442.347892473119,1.002324435186706
108.66,8897780,118.39,106.88329032258065,1.0012340985913024,-0.0058101570679252035,924.24,132932432,926.16,895.5535483870968,1.0026915260882856,0.056376283889659096,356.15,445836928,354.87,341.67180645161295,1.003714081080178,0.02151798356866208,2519.36,2502.22,2448.827548387097,1.0026530437919787
113.28,6380111,118.39,107.29890322580643,1.0038884740727145,0.012622713584018452,940.26,139097344,926.16,898.8601720430107,1.003692267940727,0.03956740667469427,362.96,445836928,356.15,343.3195913978495,1.004822712659114,0.03762411653417819,2549.33,2519.36,2456.94776344086,1.0033159603497237
113.5,5890232,118.39,107.70464516129034,1.0037814173610895,-0.009127889078405005,953.65,129766664,940.26,902.8518924731181,1.004440869174384,0.037070522002950135,365.6,445836928,362.96,345.05901075268815,1.0050664727513992,0.03641429600409318,2553.17,2549.33,2464.9356559139783,1.003251144607947
117.76,8985946,118.39,108.36584946236562,1.0061390509210175,0.02286245845297441,958.35,122189400,953.65,906.9683010752686,1.00455933983909,0.06949580486502938,367.95,445836928,365.6,346.8721505376344,1.0052545788646157,0.03559938953831199,2575.21,2553.17,2473.969311827957,1.0036648647977098
117.93,7903764,118.39,109.00797849462367,1.0059255663610247,0.027585280282197422,959.66,141617952,958.35,910.9620860215053,1.0044034449070622,0.07730318619396725,370.49,445836928,367.95,348.7555053763441,1.0054295360287373,0.0346196696823986,2581.07,2575.21,2482.8837634408605,1.0036032991881847
116.53,5301503,118.39,109.53215053763441,1.0048085658522379,0.017175231370367916,953.59,176663168,959.66,914.3857204301077,1.0037582622385028,0.05444038393421602,368.57,445836928,370.49,350.4251827956989,1.0047875299274576,0.01914087105385387,2587.84,2581.07,2491.7654193548387,1.0035771533266098
114.67,3991294,118.39,109.91378494623656,1.0034842227303027,0.011838466468809594,942.07,153102496,959.66,916.9113333333332,1.0027620869910758,0.03376828189332559,363.98,445836928,370.49,351.7152258064516,1.0036813650219447,0.02239772906212334,2582.3,2587.84,2499.7900860215054,1.0032204743690296
113.83,6380533,118.39,110.21918279569893,1.0027785218170018,-0.003562027337247864,944.48,142743008,959.66,919.4314408602152,1.0027484746182822,0.041586080110726176,364.61,445836928,370.49,352.9551397849462,1.0035253349514557,0.015760025790497068,2578.85,2587.84,2507.0473333333334,1.002903142688824
116.1,3793888,118.39,110.65406451612903,1.0039456082816018,-0.014886020565291425,957.38,104092568,959.66,922.6367741935484,1.003486212447047,0.01076320111139406,367.82,445836928,370.49,354.32206451612905,1.0038728001864932,0.012473404057577797,2602.42,2587.84,2515.3302580645163,1.0033038565411407
115.93,7771562,118.39,111.06451612903227,1.0037093225151563,-0.033202888115124285,957.24,199623296,959.66,925.6950107526884,1.0033146701331228,0.02862901731735601,369.27,445836928,370.49,355.7080215053763,1.0039115740396802,-0.0005294322138957863,2642.22,2602.42,2525.7116344086025,1.0041272418644835
115.92,5149956,118.39,111.46277419354837,1.0035858263142605,-0.0007917035400288874,946.86,149401824,959.66,927.9279569892475,1.0024121835060378,0.026536813242982626,371.16,445836928,370.49,357.14324731182785,1.004034842397924,0.016276247413856915,2651.5,2642.22,2536.1692903225808,1.0041404789729398
115.09,8650593,118.39,111.78855913978495,1.0029228139044062,0.0015738576803223658,949.03,178944128,959.66,930.1449462365593,1.0023891825120832,0.02455585036541108,370.47,445836928,371.16,358.44509677419353,1.0036451745123687,0.0045639957213894355,2675.81,2651.5,2547.6349032258067,1.004520838946744
116.19,4638301,118.39,112.16733333333333,1.0033883091119793,0.012858464583211715,953.39,165243088,959.66,932.4977419354839,1.0025294936111238,0.04955030616809619,378.46,445836928,371.16,360.172,1.004817762165943,0.030612529538044386,2683.34,2675.81,2558.9538924731182,1.0044429400904265
116.82,2440257,118.39,112.56750537634407,1.0035676344539772,-0.005151890337475873,956.95,71508952,959.66,934.9450107526881,1.0026244233172348,0.03698868198071126,378.94,445836928,378.46,361.82907526881723,1.004600788703223,0.027924525027424263,2673.61,2683.34,2569.0698279569892,1.0039531526979153
118.92,4050671,118.39,113.08939784946234,1.004636262226594,-0.007904742058814085,980.89,120560480,959.66,938.8146236559139,1.0041388668410676,0.08029343668983002,394.19,445836928,378.94,364.3800645161291,1.0070502605281697,0.024791651088327926,2743.15,2683.34,2583.167827956989,1.0054875892615232
118.17,6411851,118.92,113.5435698924731,1.0040160444006903,-0.038674775640241243,984.38,133033288,980.89,942.7357849462367,1.0041767151805252,0.14024263223414946,397.22,445836928,394.19,367.01415053763446,1.0072289520696014,0.025760521533726655,2786.24,2743.15,2599.3761935483876,1.0062746080281657
118.44,12918741,118.92,114.00008602150538,1.0040206251174295,-0.03068201109309654,973.19,155273248,984.38,945.7395268817206,1.0031861970060416,0.13262692318139468,396.62,445836928,397.22,369.4848602150538,1.0067319193927537,0.020484878868685108,2810.3,2786.24,2616.3774838709674,1.0065405270559824
121.47,9565984,118.92,114.63539784946236,1.0055729065663788,0.0005288595807599883,981.21,157901568,984.38,949.0690537634409,1.0035205537963485,0.10389432382752939,401.59,445836928,397.22,372.15038709677424,1.0072141707786593,0.0047124782955658695,2872.87,2810.3,2636.615548387097,1.0077351470270977
115.61,6957737,121.47,114.86789247311826,1.002028122447494,-0.015595652858406694,944.3,167987776,984.38,949.8182580645163,1.0007894096832095,0.06646391908381577,378.94,445836928,401.59,373.21662365591396,1.0028650690583925,-0.022471330621355978,2762.13,2872.87,2648.7425161290316,1.0045994448259068
112.37,10938633,121.47,114.88144086021502,1.0001179475552746,-0.005960769713611258,909.47,211233152,984.38,948.210623655914,0.9983074294530005,0.06614428908702208,366.02,445836928,401.59,373.3643010752688,1.0003956882142822,-0.008228966231208723,2619.55,2872.87,2650.9461505376344,1.0008319549352889
116.16,6223301,121.47,115.14043010752691,1.0022544045876567,0.05376273785294128,937.24,159697200,984.38,948.3904086021506,1.000189604442042,0.09305944229057728,378.85,445836928,401.59,374.297311827957,1.0024989286602954,-0.010842375695302664,2732.22,2872.87,2660.074129032258,1.0034432908012003
117.46,3714087,121.47,115.4622365591398,1.0027949040255657,0.041662554660047535,958.34,117920312,984.38,949.857182795699,1.001546593238654,0.12594454973058533,383.58,445836928,401.59,375.46535483870963,1.0031206289060646,0.0013745357109717915,2747.3,2872.87,2669.616559139785,1.0035872797691539
110.25,7744975,121.47,115.29430107526882,0.9985455375811557,0.02998176516437434,920.67,178533936,984.38,948.7657849462365,0.9988509874229194,0.10355406555091051,368.11,445836928,401.59,375.5517849462365,1.0002301946275816,-0.010256775771063209,2691.25,2872.87,2674.9510322580645,1.0019982169724024
117.65,7311876,121.47,115.59251612903225,1.002586555024682,0.07442828269752177,955.89,179928640,984.38,949.9079784946235,1.001203873038541,0.12477807973568955,383.11,445836928,401.59,376.5498279569892,1.0026575376572782,0.0029440665080116,2786.57,2872.87,2685.9740645161287,1.0041208351574045
114.93,7168624,121.47,115.67886021505376,1.0007469695176903,0.06378044251548487,928.85,162926144,984.38,949.1298064516129,0.9991807921813186,0.08245255796362982,370.81,445836928,401.59,376.6503870967741,1.0002670540053902,-0.03164747856852257,2752.01,2872.87,2694.024946236559,1.0029973788007818
109.48,6412665,121.47,115.38595698924732,0.9974679623808368,0.0476189216000531,890.1,140519952,984.38,945.7348387096775,0.9964230733047699,0.08652907013703037,351.03,445836928,401.59,375.4003870967741,0.9966812724934786,-0.028512887452827318,2588.26,2872.87,2690.809247311828,0.9988063588909141
111.6,6011642,121.47,115.21744086021505,0.9985395438627945,0.06031108410649866,902.85,128183232,984.38,943.1474193548387,0.997264117542324,0.059813803981876634,356.34,445836928,401.59,374.47032258064513,0.9975224732096794,-0.03898983594849703,2640.87,2872.87,2690.6754623655916,0.999950280776547
109.39,8117330,121.47,114.8912688172043,0.997169074051849,0.043867730736538046,904.23,173705200,984.38,940.6360860215055,0.9973372844140834,0.0785573355989353,353.79,445836928,401.59,373.35533333333336,0.9970224896872257,-0.026745041708800654,2604.47,2872.87,2687.839913978495,0.9989461574140928
110.0,7182996,121.47,114.59197849462365,0.9973950124699481,0.011843763602894741,931.49,155303520,984.38,939.8601720430107,0.9991751177846295,0.1008384532339619,363.65,445836928,401.59,372.8533333333333,0.9986554363760706,-0.02765004077923794,2656.3,2872.87,2688.040623655914,1.0000746732260262
108.87,9845413,121.47,114.21182795698925,0.9966825728761439,-0.018844779107145992,944.55,134125072,984.38,939.881870967742,1.000023087396803,0.08072005470315524,369.26,445836928,401.59,372.68698924731177,0.9995538618777137,-0.026558347148365913,2670.14,2872.87,2688.798602150537,1.0002819817855255
107.97,8648833,121.47,113.77337634408602,0.9961610664959469,-0.024386523578487362,940.91,139436272,984.38,939.6291827956989,0.9997311490094144,0.05759467368304694,361.4,445836928,401.59,371.9826021505376,0.9981099766906358,-0.04501626000976211,2669.91,2872.87,2689.180623655914,1.0001420788842539
106.4,7094773,121.47,113.23511827956987,0.9952690332148685,-0.0622021424294108,941.64,159635680,984.38,939.3877419354839,0.9997430466564516,0.03658607259847346,361.6,445836928,401.59,371.27982795698927,0.9981107337023684,-0.04849990444791985,2663.42,2872.87,2688.8201720430106,0.9998659622898765
100.43,12288078,121.47,112.3264946236559,0.9919757786301716,-0.10010673574818374,939.3,152249104,984.38,938.9923655913977,0.9995791127279653,0.03079979203776162,368.61,445836928,401.59,371.0322365591398,0.9993331407224253,-0.06013295050494083,2727.72,2872.87,2692.3627526881723,1.0013175223400939
104.95,11720806,121.47,111.73759139784947,0.9947572188753907,-0.1108674908796482,960.35,151755488,984.38,939.9859139784946,1.0010581006017776,0.0710200160311164,374.52,445836928,401.59,371.15946236559137,1.0003428969073724,-0.03563897954040329,2712.97,2872.87,2694.5783440860214,1.0008229171182959
103.4,6300520,121.47,111.07623655913982,0.9940811786755376,-0.11126695375462092,948.2,121232528,984.38,940.1912903225806,1.000218488746514,0.022714475053794425,369.02,445836928,401.59,370.9177204301075,0.9993486844335233,-0.058309522407467895,2721.33,2872.87,2697.037032258064,1.0009124574824253
102.01,6883431,121.47,110.35645161290323,0.9935199015691052,-0.1129523970717955,942.48,138884256,984.38,940.0522795698924,0.9998521463088215,0.02235919156571331,368.82,445836928,401.59,370.66623655913975,0.9993219955340064,-0.056040819898818484,2734.62,2872.87,2700.0515053763443,1.00111769808209
104.15,5941921,121.47,109.8059569892473,0.9950116679576932,-0.11224954933072473,961.39,168053248,984.38,941.1571612903225,1.001175340717152,0.07389188552962311,379.64,445836928,401.59,371.1122795698925,1.0012033548426027,-0.033159679999082314,2779.03,2872.87,2705.615483870967,1.0020606934658631
105.38,10991283,121.47,109.35744086021505,0.9959153752553136,-0.08936352474018872,958.77,128582608,984.38,942.0514623655914,1.0009502143871942,0.07177943085461103,374.44,445836928,401.59,371.18916129032255,1.0002071656602662,-0.05090772819677847,2779.66,2872.87,2710.797032258065,1.0019151089347273
105.42,14056178,121.47,108.92967741935482,0.9960883919969651,-0.07615478138198328,942.22,150411472,984.38,941.8472903225806,0.9997832686947928,0.020439296065395185,366.59,445836928,401.59,370.7384516129033,0.998785768216258,-0.061927960385534164,2754.88,2872.87,2713.948021505376,1.0011623847930387
103.73,13325209,121.47,108.4158494623656,0.9952829387806676,-0.08884504446444996,941.55,146661616,984.38,941.632494623656,0.999771942117229,0.004889847552588034,363.65,445836928,401.59,370.10070967741933,0.9982798063359507,-0.04403967787315122,2718.37,2872.87,2714.415655913979,1.0001723077984168
103.0,5626357,121.47,107.88116129032258,0.9950681733833703,-0.11241724800407082,947.77,72164256,984.38,941.8527311827957,1.0002338880193675,-0.0044713174523483,366.01,445836928,401.59,369.62731182795693,0.9987208945103753,-0.05472776533735768,2759.82,2872.87,2717.393720430108,1.0010971291407196
103.99,7241669,121.47,107.43812903225806,0.9958933306541606,-0.09986027165105948,952.27,106863840,984.38,942.3613333333334,1.000540001779152,0.014529977446338216,367.05,445836928,401.59,369.2320860215054,0.9989307451213575,-0.05613320256666188,2801.31,2872.87,2722.815612903226,1.00199525465609
105.0,11183469,121.47,107.08412903225805,0.99670508037334,-0.09412608325212968,951.31,127917344,984.38,942.8010322580643,1.0004665927061922,0.0015935834675724347,365.25,445836928,401.59,368.72808602150536,0.9986350048679934,-0.0790622677000854,2801.83,2872.87,2728.0011612903227,1.0019044801868047
109.44,7824621,121.47,107.04064516129033,0.999593927957759,-0.07394792665546035,967.26,129202784,984.38,944.2742365591397,1.00156258240145,0.02853109704475898,371.89,445836928,401.59,368.6808817204301,0.9998719807281713,-0.07291686268105746,2818.82,2872.87,2734.0280215053763,1.002209258669158
110.95,5983915,121.47,107.11045161290325,1.0006521490178588,-0.07176043800114706,985.54,144930048,984.38,946.904623655914,1.002785617773878,-0.029971556525224985,371.26,445836928,401.59,368.608193548387,0.9998028425783733,-0.09360363477235734,2840.35,2872.87,2741.1316344086026,1.0025982224203083
107.46,3875212,121.47,106.97223655913979,0.9987096025487506,-0.08510581900094405,978.94,132832200,985.54,949.0992043010752,1.0023176364232844,-0.05748984823178438,367.96,445836928,401.59,368.3719139784946,0.9993589953396915,-0.0905449182834831,2833.28,2872.87,2747.570086021505,1.002348829779673
108.42,5340893,121.47,106.91898924731181,0.9995022324152442,-0.0807464902006585,969.44,116593016,985.54,950.6925806451613,1.0016788301337367,-0.07726712684143833,366.13,445836928,401.59,368.08049462365585,0.9992088990941482,-0.09104745439496797,2850.13,2872.87,2754.9944731182795,1.0027021647726282
110.62,6607266,121.47,107.0292258064516,1.0010310288183215,-0.0923187669387564,984.15,104267760,985.54,953.2430537634409,1.0026827527322753,-0.03533385122691679,370.4,445836928,401.59,368.130129032258,1.0001348466146052,-0.07829978937934567,2874.69,2872.87,2763.9177204301077,1.0032389347415744
110.54,5893960,121.47,107.15763440860214,1.0011997526954248,-0.09283241686036425,990.55,108931976,985.54,956.2001075268815,1.0031020984121164,-0.02461722408460809,371.6,445836928,401.59,368.32425806451613,1.0005273380713728,-0.06983449870183445,2901.52,2874.69,2774.5680215053767,1.0038533350673013
111.51,4714492,121.47,107.35952688172044,1.0018840698960232,-0.09085559288315892,985.14,90480928,990.55,958.7086666666668,1.0026234666991132,-0.022657301140077246,369.51,445836928,401.59,368.39933333333335,1.0002038292813287,-0.08671435771784997,2871.68,2901.52,2782.9933978494623,1.0030366443636565
112.17,5836546,121.47,107.6058494623656,1.0022943709589605,-0.10265611734613067,1001.26,116019616,990.55,962.0944946236559,1.0035316546879265,-0.020269914315696358,371.61,445836928,401.59,368.6023870967742,1.0005511784226198,-0.08234109884872975,2904.98,2901.52,2793.0249462365587,1.0036045893586554
115.98,8689690,121.47,108.10655913978495,1.0046531827026233,-0.08609169672084038,1028.77,143084560,1001.26,967.1174838709676,1.0052208897102946,-0.010866675505717627,380.16,445836928,401.59,369.37262365591397,1.0020896135947637,-0.07529754011459522,2929.67,2904.98,2804.277870967742,1.0040289381397562
109.13,9714329,121.47,108.16851612903226,1.000573110362038,-0.09744299053432626,1001.03,121715672,1028.77,970.1993333333334,1.0031866340064812,-0.008054607712743023,363.12,445836928,401.59,369.0508602150538,0.9991288920178342,-0.0963165295092746,2913.98,2929.67,2814.126344086021,1.0035119462376532
108.02,7256475,121.47,108.16126881720432,0.9999329998035723,-0.1274858193824634,999.51,123374136,1028.77,973.0103010752689,1.00289730949647,0.017999014238256894,361.28,445836928,401.59,368.6211182795699,0.9988355482080885,-0.09250857193129036,2885.57,2929.67,2821.662924731183,1.0026781244776022
95.09,22110214,121.47,107.3405376344086,0.992411967871949,-0.17031212611465718,926.7,184383888,1028.77,971.0300430107527,0.997964812846968,0.012516584661193764,337.46,445836928,401.59,366.7015483870967,0.9947925666835579,-0.09543240938744224,2767.13,2929.67,2821.3453118279567,0.9998874376877399
101.39,13807966,121.47,106.9689247311828,0.9965380003546145,-0.12478793337355154,935.4,123057600,1028.77,969.6156989247312,0.998543460013208,-0.006327989574552939,332.92,445836928,401.59,364.5607956989247,0.9941621389449052,-0.12095037003911036,2767.78,2929.67,2821.0371182795698,0.9998907636200735
102.83,17284940,121.47,106.7076129032258,0.997557123916,-0.08464282162637915,908.32,168315504,1028.77,966.3568387096773,0.9966390187177581,-0.008052316381849334,318.04,445836928,401.59,361.49898924731184,0.991601383122552,-0.11422939497978157,2658.69,2929.67,2813.304795698925,0.9972590496840537
106.91,12716627,121.47,106.72838709677418,1.0001946833312374,-0.08680308986499485,962.22,166066832,1028.77,966.5636344086022,1.000213995173047,0.02959855904623443,337.57,445836928,401.59,359.77954838709684,0.9952435804487445,-0.09137966234640005,2723.06,2929.67,2809.6870537634413,0.9987140597275438
107.71,5635259,121.47,106.80610752688173,1.0007282076701587,-0.07529004947108198,982.23,160199296,1028.77,967.936688172043,1.0014205518545924,-0.030987789659709275,343.86,445836928,401.59,358.50079569892466,0.9964457326885175,-0.10136922255017511,2781.01,2929.67,2809.5529892473123,0.9999522848938107
107.17,10757440,121.47,106.8539139784946,1.0004476003546974,-0.04318363711448203,970.59,131332328,1028.77,968.4496559139785,1.0005299600151578,-0.07835466144765557,345.15,445836928,401.59,357.34782795698925,0.9967839185972025,-0.09005923930211002,2736.27,2929.67,2806.2642795698926,0.9988294544754962
107.29,4712807,121.47,106.91311827956989,1.0005540676880325,-0.006744422133762806,941.33,89482608,1028.77,967.0188817204302,0.9985226137623044,-0.06217122763390415,333.11,445836928,401.59,355.46993548387087,0.9947449170634265,-0.06428967973706401,2632.56,2929.67,2796.142387096774,0.996393107895501
109.33,8518371,121.47,107.10539784946239,1.0017984656418841,0.003271420075612541,964.49,124959288,1028.77,967.0813978494624,1.0000646483023383,-0.057173121974678276,341.11,445836928,401.59,354.16901075268817,0.9963402679064494,-0.09299029927620506,2760.17,2929.67,2794.333720430108,0.9993531564504681
103.23,5583309,121.47,106.89782795698927,0.9980620034410884,0.057370161282107035,911.6,118492648,1028.77,963.6825161290323,0.9964854233283895,-0.10701859809896896,323.38,445836928,401.59,351.7682795698924,0.9932215097597227,-0.08800856987714245,2633.08,2929.67,2784.117634408602,0.9963439993058762
100.14,6875941,121.47,106.4848817204301,0.9961370006813859,0.02434098474251567,892.96,137331840,1028.77,959.1406236559138,0.9952869410857815,-0.16318322856564382,319.86,445836928,401.59,349.2377204301074,0.9928061758641822,-0.1042876708303393,2599.95,2929.67,2771.9676559139784,0.9956359679833698
96.32,9536582,121.47,105.83582795698923,0.9939047332076217,0.04363519681187644,841.9,172389712,1028.77,951.4494623655914,0.9919811953527666,-0.11544187319138044,304.67,445836928,401.59,345.84470967741936,0.9902845238237458,-0.062409807593150624,2416.62,2929.67,2748.2329892473126,0.9914376105305457
101.23,4960642,121.47,105.51877419354838,0.9970042870211239,0.07409547843876652,865.44,75630432,1028.77,945.5056129032258,0.993752847946766,-0.06723863587915013,314.1,445836928,401.59,343.19847311827954,0.9923484833363273,-0.05735423926555805,2485.74,2929.67,2729.6129677419353,0.9932247296432909
99.91,5145871,121.47,105.11823655913977,0.9962041102403832,0.04138936253869918,882.46,97231504,1028.77,940.825505376344,0.995050153628902,-0.04906380001497024,321.35,445836928,401.59,341.1376559139785,0.9939952611514364,-0.06462787764823597,2531.94,2929.67,2714.508817204301,0.9944665596492498
101.86,6076994,121.47,104.852623655914,0.9974731986387886,0.02178236672974554,905.86,110933464,1028.77,937.8248172043012,0.996810579480578,-0.07272375102394812,327.44,445836928,401.59,339.59509677419356,0.9954781915363401,-0.05954148526324243,2596.26,2929.67,2704.085720430108,0.996160227328004
105.43,11766740,121.47,104.82490322580645,0.9997356248309196,0.017171549879207215,926.13,110292288,1028.77,936.2456559139786,0.9983161446985054,-0.03109140666983523,335.0,445836928,401.59,338.6413548387097,0.9971915320788095,-0.05561950841165375,2670.71,2929.67,2698.860258064516,0.9980675677822962
103.5,6092828,121.47,104.67264516129033,0.9985475010247504,0.022677824849127615,918.11,88895104,1028.77,934.1836774193549,0.9977976095465985,-0.043369612072281516,332.71,445836928,401.59,337.60780645161293,0.9969479557876533,-0.06536043228334032,2664.76,2929.67,2693.4319354838713,0.9979886611155859
105.77,5885951,121.47,104.66733333333333,0.999949252950006,0.02689320388349503,947.77,127054968,1028.77,934.0856559139785,0.9998950725561303,-0.029789719626168276,335.49,445836928,401.59,336.82015053763445,0.9976669499373932,-0.06407646953214463,2706.53,2929.67,2690.8137419354844,0.9990279340220578
104.86,5103953,121.47,104.59735483870969,0.9993314199149339,0.021818256222465027,939.46,124700456,1028.77,933.4515053763441,0.9993211002292783,-0.06636783390448564,330.3,445836928,401.59,335.76329032258064,0.9968622417234633,-0.0667703460479041,2707.88,2929.67,2688.397247311828,0.9991019465279234
109.11,4815036,121.47,104.7996989247312,1.0019345048097394,0.03028139242578276,959.74,135483744,1028.77,934.1532903225808,1.0007518172526313,-0.0720659847967624,341.41,445836928,401.59,335.5022365591398,0.9992225065367032,-0.05590862418722842,2775.6,2929.67,2690.5507096774195,1.0008010208936737
111.44,3711120,121.47,105.14352688172045,1.0032808105416047,0.004617719214812244,980.47,103499200,1028.77,936.1743655913978,1.0021635370658697,-0.07079152701971525,349.17,445836928,401.59,335.79309677419354,1.0008669397200947,-0.05181640256842357,2792.67,2929.67,2693.861870967742,1.001230663030588
112.76,4253873,121.47,105.56821505376344,1.0040391280817575,0.017521114669175386,984.35,128752072,1028.77,938.4173548387098,1.0023959097041661,-0.03794550791921569,343.5,445836928,401.59,335.7670107526882,0.9999223151942194,-0.06186553663305738,2803.69,2929.67,2697.9402365591395,1.001513947554383
109.63,4523052,121.47,105.78707526881722,1.0020731639247886,0.042942656355502984,956.67,121963480,1028.77,938.8770967741935,1.0004899120131499,-0.08381779825101365,341.6,445836928,401.59,335.67804301075273,0.9997350313190805,-0.039798798686095704,2743.07,2929.67,2698.18647311828,1.0000912683519834
110.03,7344056,121.47,106.0270752688172,1.0022687081516348,0.016335052363862568,968.0,137457872,1028.77,940.1156989247312,1.001319237794588,-0.05504143842686138,347.35,445836928,401.59,336.0167311827957,1.0010089673098819,-0.041591944623610155,2822.48,2929.67,2703.749935483871,1.0020619265647572
106.69,8191262,121.47,106.04812903225807,1.0001985696897466,0.004517679161555543,944.74,109988296,1028.77,939.856752688172,0.9997245591826035,-0.1148910969428113,340.33,445836928,401.59,335.9429032258064,0.9997802848782874,-0.05544755658769618,2800.71,2929.67,2707.9683440860217,1.0015602066399665
112.87,7407608,121.47,106.4763440860215,1.0040379312456627,0.044489578863301404,967.36,124495344,1028.77,941.1419139784946,1.0013674012413558,-0.09968486181753267,347.27,445836928,401.59,336.38148387096777,1.0013055213875632,-0.042340924697321536,2834.4,2929.67,2714.519397849463,1.002419176641318
114.96,5911786,121.47,107.03438709677418,1.0052410046150895,0.010353022672359158,1005.42,181825216,1028.77,944.9324301075269,1.0040275712650057,-0.07931695889701929,362.03,445836928,401.59,337.8246451612903,1.004290251870332,-0.02757671075061141,2892.74,2929.67,2724.9786666666664,1.0038530831002679
115.6,4206640,121.47,107.6263010752688,1.0055301290972913,0.010853439759065608,1021.01,154872720,1028.77,949.6851397849462,1.0050296820449673,-0.0817684042614113,363.77,445836928,401.59,339.39615053763447,1.0046518375697364,-0.02193388161694987,2907.41,2929.67,2736.3390967741934,1.0041689978150998
119.86,8500338,121.47,108.48567741935484,1.007984817237982,0.03911128497215122,1022.95,123211288,1028.77,954.5205376344086,1.0050915799846647,-0.07600435182823151,362.0,445836928,401.59,340.8703225806451,1.004343514328832,-0.03935885669728567,2905.03,2929.67,2747.540752688172,1.0040936651189114
117.81,6515798,121.47,109.20445161290324,1.006625521549448,0.07271519315220787,1007.86,158545184,1028.77,958.3949032258065,1.0040589651439034,-0.0969618290089771,357.37,445836928,401.59,342.08483870967746,1.0035629858294426,-0.024723172969900453,2939.88,2929.67,2761.043784946237,1.0049145885260677
117.63,4081996,121.47,109.89294623655913,1.006304638808099,0.11119589961791887,977.29,213702288,1028.77,960.2823225806451,1.001969354541104,-0.16799101536834804,354.79,445836928,401.59,343.14526881720434,1.0030999038470303,-0.03878128361414146,2945.64,2939.88,2774.8627311827954,1.0050049717834617
112.24,5121142,121.47,110.21303225806452,1.0029127076165232,0.18420783213980607,923.13,266425504,1028.77,958.7233333333334,0.9983765303071266,-0.17543232066133718,344.74,445836928,401.59,343.5712688172043,1.0012414567202643,-0.0197225667254306,2881.4,2945.64,2784.407978494624,1.0034398989198863
111.77,5858309,121.47,110.46591397849463,1.0022944811085315,0.1339035798804571,905.91,215548080,1028.77,956.061053763441,0.9972230992223419,-0.1820576965197691,342.01,445836928,401.59,343.8054838709677,1.0006817073341716,-0.005845454217741519,2859.53,2945.64,2792.2965161290326,1.002833111273684
107.75,7556862,121.47,110.4371182795699,0.9997393250289829,0.06495446736518085,892.78,183687808,1028.77,952.6150967741937,0.9963956726657962,-0.18264557928199732,336.33,445836928,401.59,343.65369892473126,0.9995585150518035,-0.005443565837346176,2826.06,2945.64,2797.828387096774,1.001981118744298
104.65,4502306,121.47,110.19774193548386,0.997832464774388,0.06217846835621732,882.05,155768832,1028.77,948.5103010752688,0.9956910238848566,-0.22342512965276462,329.32,445836928,401.59,343.0103225806452,0.9981278352419918,-0.03508915923614642,2752.06,2945.64,2798.2261290322585,1.0001421609478691
113.99,10618101,121.47,110.5658064516129,1.0033400368252965,0.08569136804919064,955.33,276702304,1028.77,949.3056559139786,1.0008385305228717,-0.156210822826365,359.2,445836928,401.59,344.3124301075269,1.0037961176126866,0.011411010684000189,2873.34,2945.64,2806.386021505376,1.0029160947317504
116.55,5180041,121.47,111.08552688172041,1.0047005529719077,0.09415963324616705,964.15,187577712,1028.77,950.7278924731183,1.0014981861219086,-0.13236825951330433,360.98,445836928,401.59,345.6963870967742,1.0040194801820401,-0.009214511885914156,2886.98,2945.64,2815.2273548387097,1.0031504337840849
116.07,7154710,121.47,111.55410752688171,1.0042181970803472,0.05734765030248812,964.38,243311696,1028.77,952.1788172043011,1.0015261198736987,-0.1280465715459087,361.81,533840000,401.59,347.09984946236557,1.0040598120720263,-0.034599256120983135,2950.46,2945.64,2827.840064516129,1.0044801744540246
116.71,5389692,121.47,112.04509677419357,1.0044013551647442,0.04470244368564025,986.48,209896464,1028.77,955.0059784946236,1.0029691495328823,-0.06830532633183917,367.14,479809984,401.59,348.7854623655914,1.0048562766761113,0.010520268806237576,2941.76,2950.46,2839.2078279569896,1.0040199456763852
117.96,2501091,121.47,112.60086021505376,1.0049601763652383,0.06595786185200048,981.55,113082288,1028.77,957.4677849462365,1.002577791665235,-0.03790034777349449,369.06,295350016,401.59,350.53896774193544,1.0050274611919061,0.00554997060698903,2990.41,2950.46,2853.323784946237,1.0049717941921161
117.04,5257073,121.47,113.06559139784945,1.0041272436276962,0.08545652776669921,967.35,155467904,1028.77,958.8630322580647,1.001457226377498,-0.0496857461752962,366.04,376710016,401.59,351.99939784946235,1.004166241821657,-0.01478893496606326,3013.77,2990.41,2868.1783870967743,1.0052060695771394
117.51,8166890,121.47,113.52430107526882,1.0040570227577486,0.07179534830447998,966.67,142179712,1028.77,960.054430107527,1.0012425109837186,-0.03413228052183581,366.59,374460000,401.59,353.39599999999996,1.0039676265330855,-0.02848818623627758,2976.61,3013.77,2879.745634408602,1.004032959513211
117.94,7740062,121.47,113.96518279569894,1.0038835889431093,0.027220687941718724,984.74,131828752,1028.77,962.143311827957,1.0021757950954886,-0.05481875126363911,370.11,356350016,401.59,354.8865376344085,1.0042177546842876,-0.038968400685879256,3025.86,3013.77,2893.2860215053765,1.0047019385792229
114.17,4984952,121.47,114.12690322580646,1.0014190336569497,0.044174413500492005,969.43,202187424,1028.77,962.9878924731184,1.000877811688528,-0.12786599561838252,359.06,432320000,401.59,355.54372043010744,1.0018518110043835,-0.04067638644999483,2932.05,3025.86,2899.612602150538,1.002186641969766
115.33,7206825,121.47,114.33279569892471,1.0018040660641678,0.06990177865351588,962.33,243789040,1028.77,963.187376344086,1.0002071509647492,-0.1380444746936429,361.64,482289984,401.59,356.2862580645161,1.0020884566137476,-0.019728158309339605,2918.65,3025.86,2904.214215053764,1.0015869750668807
110.72,5204025,121.47,114.21230107526883,0.9989461062075908,0.04620194764181629,929.81,169421856,1028.77,961.1673548387096,0.997902774107107,-0.17500865652391018,354.34,403300000,401.59,356.48427956989246,1.000555793272668,-0.02388365797076597,2888.68,3025.86,2906.1889677419354,1.0006799610985773
106.54,4260820,121.47,113.81075268817204,0.9964841931795757,0.04472961756079785,904.01,155343248,1028.77,957.4749032258063,0.9961583676408539,-0.17355439805744988,343.54,354990016,401.59,355.94393548387103,0.9984842414743411,-0.03587930744982959,2847.11,3025.86,2905.0130322580644,0.9995953685404069
110.79,5469963,121.47,113.67686021505378,0.9988235516420394,0.06569374455014299,930.49,164867296,1028.77,955.5211612903225,0.9979594849651918,-0.16419559164099107,354.28,360720000,401.59,356.07320430107524,1.0003631718490398,-0.025251398459082086,2926.46,3025.86,2908.564301075269,1.0012224622670434
115.78,3911649,121.47,113.85410752688175,1.0015592206847783,0.0956126771914565,947.47,112142000,1028.77,954.7000645161289,0.9991406817478696,-0.1378141517293796,357.38,287340000,401.59,356.362064516129,1.0008112382834895,-0.018029437021764183,2978.71,3025.86,2915.0135698924737,1.0022173375416938
119.38,4702028,121.47,114.24012903225808,1.003390492567738,0.07129609520978986,981.65,185407008,1028.77,956.0669032258066,1.001431694372379,-0.07473525140709092,369.31,475280000,401.59,357.3623655913978,1.0028069796840666,-0.001789945550990213,3007.39,3025.86,2922.730731182796,1.0026473843449746
119.26,6483719,121.47,114.59632258064516,1.0031179372030166,0.09137640641469469,959.68,188878000,1028.77,955.9692043010753,0.9998978116234316,-0.13941733306366255,366.12,453420000,401.59,358.09686021505377,1.0020553216969013,-0.022857514545446156,2992.07,3025.86,2928.961032258065,1.0021316712514081
118.22,5092508,121.47,114.86860215053764,1.0023759887207626,0.08576586653132867,947.59,136850000,1028.77,955.1362150537635,0.9991286442664011,-0.1713958229714626,362.03,363849984,401.59,358.5310322580645,1.001212443032173,-0.0024452847420568524,2961.79,3025.86,2932.808967741935,1.0013137544137634
116.62,4720001,121.47,115.02591397849461,1.0013694937085664,0.09682252229932997,925.04,149918000,1028.77,952.9274408602149,0.9976874772846674,-0.16613292050852624,352.92,395649984,401.59,358.3376129032259,0.9994605226955657,-0.04303195724505304,2952.01,3025.86,2935.6859354838707,1.0009809598148327
119.17,5692792,121.47,115.33270967741933,1.0026671876650515,0.12590916320342382,926.53,170179008,1028.77,950.8828172043011,0.9978543763478276,-0.1451895212746187,359.46,461860000,401.59,358.5417849462365,1.0005697756407885,-0.017497782725766964,2970.27,3025.86,2939.291634408602,1.001228230472868
124.23,8626271,121.47,115.94630107526883,1.0053201853972364,0.18638642189393584,923.97,119570000,1028.77,948.7622150537633,0.9977698596376232,-0.13388621710325477,360.6,323000000,401.59,358.7934623655914,1.0007019472483316,-0.0066697956485481935,2986.2,3025.86,2943.607247311829,1.0014682493062976
124.04,7301076,124.23,116.50991397849461,1.0048609821788097,0.1358783116466794,931.65,146662000,1028.77,947.1817634408602,0.9983341962951028,-0.12574535347561488,365.33,416040000,401.59,359.30670967741935,1.0014304812257282,-0.014375247876137642,3022.55,3025.86,2949.86911827957,1.0021272780101556
125.44,6040528,124.23,117.13982795698925,1.0054065268523922,0.14666133772074363,949.62,168166000,1028.77,946.8374623655913,0.9996364994676226,-0.12636950831540095,370.03,429230016,401.59,360.0843440860214,1.0021642635321233,-0.03811173546767743,3066.91,3025.86,2958.588301075269,1.002955786323423
128.92,6360839,125.44,117.97172043010752,1.007101704754285,0.16285422172881314,972.38,189522000,1028.77,948.0815483870969,1.0013139383167173,-0.07606866548692026,377.42,491300000,401.59,361.32154838709675,1.003435873626263,-0.026337252125637534,3093.08,3066.91,2968.621311827956,1.0033911479840032
129.5,4201883,128.92,118.8123870967742,1.0071260015841232,0.14517128741698715,956.72,156828000,1028.77,948.4198924731181,1.0003568723456298,-0.14775149071642157,378.32,335560000,401.59,362.58746236559136,1.003503566239394,-0.029074708921236203,3120.46,3093.08,2980.0214838709676,1.003840224415822
125.41,5595928,129.5,119.36845161290324,1.0046801897488695,0.14136656527348057,930.4,159096992,1028.77,947.2026021505378,0.9987165069688637,-0.1324638295869116,371.93,374980000,401.59,363.4060215053764,1.0022575494873556,-0.017222862918367055,3110.29,3120.46,2990.30223655914,1.0034498921379646
128.84,6047735,129.5,120.1294623655914,1.0063753089062093,0.1330358257675961,940.41,125982000,1028.77,946.7976989247311,0.9995725273295413,-0.09756720702110488,375.24,319849984,401.59,364.4068172043011,1.0027539326254942,-0.008675229871243362,3140.98,3120.46,3002.1965161290314,1.0039776178556379
132.54,8046420,129.5,121.1050752688172,1.0081213457882356,0.16264181865256666,939.95,195924992,1028.77,946.442430107527,0.9996247679756641,-0.04643127266880143,375.29,410060000,401.59,365.36686021505375,1.0026345363627334,-0.003181616577893287,3145.91,3140.98,3013.9887741935486,1.0039278768065862
133.01,5126579,132.54,122.06735483870969,1.0079458236391539,0.14754543935757125,944.4,162395008,1028.77,946.3380860215053,0.9998897512593451,0.01898839316829548,377.56,422689984,401.59,366.4076559139785,1.0028486319156371,-0.004209808105170243,3168.8,3145.91,3026.6889677419354,1.0042137494529273
132.47,6453883,133.01,122.94911827956992,1.0072235811288393,0.15789057345784374,956.64,260916000,1028.77,946.9406451612903,1.0006367271366179,0.0235998647199418,382.07,550460032,401.59,367.66296774193546,1.0034259978133526,-0.0038297963678874947,3221.22,3168.8,3042.106,1.0050936955935603
133.31,2775042,133.01,123.83191397849463,1.0071801710437431,0.18107007215334403,963.9,74786000,1028.77,947.8742580645162,1.000985925472728,0.030461800444738785,384.5,181020000,401.59,368.97668817204294,1.0035731649509765,-0.009749789815254761,3240.02,3221.22,3057.8861290322575,1.0051872383908573
129.69,4085868,133.31,124.41952688172042,1.004745246070636,0.14759184700934647,945.91,111968000,1028.77,947.4712043010752,0.9995747814016345,-0.04484185073331903,374.88,281289984,401.59,369.5510967741935,1.0015567612279146,-0.08216269208166249,3234.85,3240.02,3072.2833333333333,1.004708221200386
128.09,8404737,133.31,124.87015053763442,1.003621808145456,0.13248319477640635,931.88,167808000,1028.77,946.1832473118283,0.9986406373266014,-0.06597796896009334,373.89,404449984,401.59,370.02791397849467,1.0012902605579128,-0.09529707750958893,3265.35,3240.02,3087.870838709677,1.005073589797928
128.49,11795233,133.31,125.32176344086022,1.0036166601968635,0.11185725273181357,959.7,187823008,1028.77,946.7595268817204,1.0006090570420998,-0.05346367356420001,383.98,415889984,401.59,371.127935483871,1.0029728068175967,-0.06723351993481907,3329.62,3265.35,3106.7910967741936,1.0061272828601933
125.81,6694228,133.31,125.5737634408602,1.0020108239230043,0.12959905003297756,935.55,143287008,1028.77,945.787806451613,0.9989736354348524,-0.14052274985614743,375.28,384900000,401.59,371.61898924731184,1.001323138779086,-0.098066166105504,3295.47,3329.62,3122.692731182796,1.005118346845114
119.84,7178616,133.31,125.42103225806451,0.99878373333242,0.09858240246346395,900.43,211194000,1028.77,942.6598064516129,0.9966927042422594,-0.12616402891202705,361.99,607840000,401.59,371.2351182795699,0.9989670308061506,-0.0977781028485446,3225.52,3329.62,3133.320795698925,1.0034034935330007
122.61,9925631,133.31,125.4429677419355,1.000174894780214,0.07885122789493915,937.11,212392000,1028.77,942.0727096774193,0.9993771912516314,-0.09469413696237972,377.27,526510016,401.59,371.8522580645161,1.0016623960249402,-0.07348882596390682,3327.71,3329.62,3150.0361505376345,1.0053347090606408
120.15,7119222,133.31,125.29421505376345,0.9988141807320912,0.052817792568825905,937.33,176228000,1028.77,941.5648387096774,0.9994609004564883,-0.171081623430264,380.03,399000000,401.59,372.62331182795697,1.0020735486923065,-0.09891147834311087,3380.16,3329.62,3169.4602365591404,1.0061663057480121
118.91,5069351,133.31,125.05978494623656,0.9981289630377085,0.05939538837994218,934.35,163655008,1028.77,940.9278064516129,0.9993234324054227,-0.18354496815651433,378.91,337100000,401.59,373.29320430107526,1.0017977739230324,-0.07929811328260628,3337.75,3380.16,3185.2803440860216,1.0049914200987282
104.45,13192429,133.31,123.89036559139785,0.9906491174973518,0.07936252565260915,809.96,267131008,1028.77,932.3739784946239,0.9909091559433801,-0.13736777113135545,330.67,739129984,401.59,370.8319139784947,0.9934065493445323,-0.08662882790726001,2954.22,3380.16,3175.6858494623652,0.9969878649326832
101.45,14678265,133.31,122.54830107526882,0.9891673213673832,0.04374102088376153,804.42,275385984,1028.77,923.8056774193548,0.9908102314383515,-0.16551881183826989,335.02,661560000,401.59,368.7123225806452,0.9942842260389368,-0.09201488382688594,2972.37,3380.16,3167.2146451612903,0.9973324803829355
94.19,15426604,133.31,120.76769892473119,0.985470201260122,0.07212606052184323,723.93,318524992,1028.77,910.3840645161291,0.985471389458529,-0.13446323869737364,290.78,879489984,401.59,363.79578494623655,0.9866656541338313,-0.11787360142844439,2711.02,3380.16,3141.766623655914,0.9919651730758904
79.72,16410716,133.31,118.08909677419356,0.9778202104172982,0.08324879544528263,601.18,316760000,1028.77,889.4858494623655,0.9770446168070055,-0.040183418557625306,254.16,860099968,401.59,356.6533548387096,0.9803669245134808,-0.06973827455212611,2304.92,3380.16,3090.5006666666673,0.9836824426730999
85.0,13029833,133.31,115.80881720430108,0.9806901768903121,0.059697563950553034,658.34,278248000,1028.77,872.926623655914,0.9813833735337549,-0.09197708878441757,278.3,729209984,401.59,351.26055913978496,0.9848794477164993,-0.08290828866556599,2541.47,3380.16,3055.6620000000003,0.9887271771067945
80.43,11886160,133.31,113.28916129032258,0.9782429699671873,0.03833160644495748,621.87,237923008,1028.77,854.59976344086,0.9790052683485594,-0.08341372380625145,267.86,605809984,401.59,345.3576129032259,0.9831949642993936,-0.08596879165477844,2488.65,3380.16,3018.2435268817203,0.9877543808450411
97.17,8872681,133.31,111.92552688172043,0.9879632403217496,0.03319854750998463,766.43,198792000,1028.77,846.2995698924731,0.9902876247999789,-0.14598627084134197,323.19,518009984,401.59,343.2168602150538,0.9938013450169059,-0.05253641265720155,2789.82,3380.16,3001.3092688172046,0.9943893665591619
93.31,7888505,133.31,110.36062365591398,0.9860183528333069,0.014850247821440954,736.61,175867008,1028.77,836.5383440860214,0.9884659922399679,-0.11544181692472566,316.31,487500000,401.59,340.7314193548387,0.9927583952062908,-0.096774476396989,2874.56,3380.16,2990.31,0.9963351764739862
92.74,6668256,133.31,108.81475268817205,0.9859925495477291,-0.009903460960769217,752.74,159168992,1028.77,828.2974838709678,0.9901488553712892,-0.04881414404301532,313.51,435590016,401.59,338.17245161290316,0.9924897805233787,-0.09180095309846281,2836.74,3380.16,2977.123440860215,0.9955902367514455
88.0,11603116,133.31,107.01787096774193,0.9834867821132728,-0.07496576730789917,767.37,196834000,1028.77,821.4195268817203,0.991696272024027,-0.005241046814486672,319.47,479409984,401.59,336.10234408602156,0.9938785447572436,-0.053690040129309,2830.71,3380.16,2963.816774193548,0.9955303611250926
91.98,10018799,133.31,105.53931182795701,0.9861839978088277,-0.09789043883707171,805.83,178963008,1028.77,817.3619354838709,0.9950602691255065,0.017672613632559786,330.32,415420000,401.59,334.80417204301074,0.99613756920815,-0.06744101952199077,2929.8,3380.16,2957.1638709677422,0.9977552919992444
86.92,8797079,133.31,103.79277419354838,0.9834513073454969,-0.1281924094873852,764.92,185682000,1028.77,810.9245591397848,0.9921242034102369,0.051609441499063435,320.14,445880000,401.59,332.91189247311826,0.9943481003885178,-0.07117985105305824,2863.7,3380.16,2946.333483870968,0.9963375762827679
96.18,10772994,133.31,102.72389247311828,0.9897017713541706,-0.10032009521203133,815.86,181396992,1028.77,808.1156774193547,0.9965361984801524,0.046946043149607264,332.86,446380000,401.59,331.92726881720426,0.9970423896587188,-0.06667874997828271,2955.45,3380.16,2941.685892473118,0.998422584740223
101.67,8557288,133.31,102.0691182795699,0.9936258821800418,-0.09664531931193532,861.45,200443008,1028.77,808.4970967741936,1.0004719860850328,0.023637572948917107,348.38,475769984,401.59,332.0137634408602,1.0002605830607536,-0.051139789054417184,3044.31,3380.16,2942.9155053763443,1.0004179959887534
113.95,10908603,133.31,102.25772043010755,1.0018477885742194,-0.0814407222553638,938.66,287161984,1028.77,814.0494193548388,1.0068674613709787,-0.01669911844032923,375.02,567649984,401.59,333.86552688172037,1.0055773695092312,-0.03896400441902759,3193.93,3380.16,2953.846623655914,1.0037143840044336
101.63,8585424,133.31,101.68367741935485,0.9943863112893754,-0.10443804297889092,850.74,195588000,1028.77,814.002,0.9999417488008572,-0.03391907725803278,345.02,529870016,401.59,333.7869677419355,0.9997646982588511,-0.0626558731431347,3041.31,3380.16,2954.71440860215,1.000293781315281
103.72,5418661,133.31,101.30440860215053,0.996270111124717,-0.09355675636706096,856.53,168148000,1028.77,814.5560430107528,1.0006806408470161,-0.006734394101578833,351.93,519009984,401.59,334.2258279569892,1.0013147913413833,-0.04973856601926929,3097.74,3380.16,2959.393053763441,1.001583450890438
102.14,7709933,133.31,100.86984946236558,0.9957103629962287,-0.08411726531942854,824.63,169830000,1028.77,813.2108817204303,0.9983485957757424,-0.0015714054315383308,343.27,529300000,401.59,334.1489892473118,0.9997700994260466,-0.043195991689189084,3009.05,3380.16,2958.376752688172,0.9996565846250208
109.07,5255976,133.31,100.93980645161291,1.000693537163188,-0.1018192954713879,869.21,128729000,1028.77,814.9908387096775,1.002188801243635,-0.005533934357029535,362.11,353529984,401.59,335.35638709677414,1.003613351793109,-0.030065326119796176,3130.01,3380.16,2965.448043010753,1.002390260238543
107.04,6627143,133.31,100.92926881720429,0.9998956047690296,-0.10259705866777757,856.9,141902000,1028.77,816.1287311827958,1.0013962027780825,-0.0305479274570436,364.88,460460000,401.59,336.77083870967743,1.0042177565936596,-0.03870903455101049,3185.04,3380.16,2976.103849462366,1.0035933209070136
111.88,12538971,133.31,101.28683870967743,1.0035427770027814,-0.10085498424804362,904.43,141999008,1028.77,820.521247311828,1.0053821363728566,0.03164350864199794,384.72,414500000,401.59,339.4925591397849,1.0080818174178487,0.00584625253477733,3224.73,3380.16,2989.2853763440853,1.004429121948853
110.56,7686058,133.31,101.60352688172043,1.0031266468188502,-0.10620834525282508,901.78,120846000,1028.77,824.8550752688171,1.0052817985776572,0.03237084504447707,386.76,355760000,401.59,342.3401935483871,1.0083879140556649,0.013405494639299076,3215.63,3380.16,3001.8722580645153,1.0042106658066297
107.65,6436307,133.31,101.78139784946237,1.0017506377308043,-0.09173331136179463,871.93,159167008,1028.77,827.396688172043,1.00308128419092,-0.018643764575685395,379.77,409320000,401.59,344.732,1.0069866363830131,0.0018319077246069515,3271.12,3380.16,3018.0915913978497,1.0054030724624479
113.71,7587011,133.31,102.39763440860216,1.0060545106685528,-0.07576869842313239,897.87,196719008,1028.77,831.7709462365591,1.0052867725083359,0.019675694461872006,388.01,485910016,401.59,347.6449032258064,1.008449761628762,0.011449409200196659,3351.28,3380.16,3039.4045376344084,1.00706172943767
118.98,7733814,133.31,103.38479569892472,1.0096404696849093,-0.035928723737530754,923.15,177862000,1028.77,837.8493118279569,1.0073077397315933,0.057478877391349936,393.93,372870016,401.59,350.90937634408607,1.009390251627418,0.012929344380321561,3372.85,3380.16,3061.9243010752693,1.0074092682175135
118.23,4580228,133.31,104.34402150537633,1.0092782096242183,-0.02957244091582467,906.85,122442000,1028.77,842.9546666666665,1.0060934045855707,0.07372709724144455,388.97,312969984,401.59,353.83245161290324,1.0083300004669893,0.005621918231912382,3397.16,3380.16,3085.9194838709677,1.0078366348858696
122.12,4024881,133.31,105.57051612903224,1.0117543353798446,-0.01820129121812397,933.95,107045000,1028.77,849.8701290322582,1.0082038366226,0.10754108247744376,401.66,287510016,401.59,357.54479569892476,1.0104918134814918,0.022008985594915265,3508.01,3397.16,3116.8475913978496,1.0100223313305912
122.61,6669924,133.31,106.82372043010754,1.011870779333347,-0.0029558963195355226,939.88,140780992,1028.77,857.0960860215054,1.0085024249498866,0.09715236092523416,404.85,427340000,401.66,361.37763440860215,1.0107198839300262,0.04327882761459234,3426.96,3508.01,3141.9391612903223,1.0080503037625974
127.1,6105621,133.31,108.36660215053763,1.0144432501902942,0.05508119349406759,939.92,104433000,1028.77,864.3186666666667,1.008426803905601,0.1542013102646863,408.16,298710016,404.85,365.36470967741934,1.0110329884563611,0.08561459778985403,3340.97,3508.01,3161.2695483870975,1.0061523747292538
125.77,7548484,133.31,109.80873118279573,1.013307873492746,0.0469452524331162,944.39,182234000,1028.77,871.824064516129,1.0086836003188588,0.1633387151218142,411.95,493680000,408.16,369.53580645161287,1.0114162552203692,0.09267423084512783,3319.47,3508.01,3179.29711827957,1.0057026361139214
120.25,6455715,133.31,110.87997849462367,1.00975557499198,0.04544850904940989,895.67,153126000,1028.77,876.1646451612903,1.0049787346115187,0.16001415555950715,392.92,429889984,411.95,372.40810752688174,1.0077727273653114,0.07172931500498336,3298.46,3508.01,3196.0085161290317,1.0052563183709313
123.27,6025688,133.31,112.11208602150536,1.0111120830253537,0.084825981597068,909.2,135908992,1028.77,881.1938064516129,1.0057399728670822,0.18337457453489325,397.67,377380000,411.95,375.45298924731185,1.0081761961109033,0.06048182729367357,3348.44,3508.01,3215.2041290322577,1.0060061206991011
135.88,9803224,133.31,114.11081720430109,1.0178279724668786,0.10290082312753768,969.86,162366000,1028.77,889.9111827956988,1.0098926890773199,0.28987107192045913,418.02,398200000,411.95,379.6760430107527,1.0112478895744232,0.1549906225795814,3477.13,3508.01,3241.893569892472,1.0083010097614697
137.16,6124048,135.88,116.10247311827956,1.0174536995069685,0.10020844271360807,974.1,121502000,1028.77,898.3732258064517,1.0095088624284605,0.2886075188380388,416.43,304049984,418.02,383.52288172043006,1.0101318973911884,0.12698931523202095,3483.81,3508.01,3267.366430107527,1.0078574017517483
134.27,6491669,137.16,117.7841505376344,1.0144844237524693,0.11203154100598844,966.19,126226000,1028.77,905.5229677419356,1.0079585429864806,0.32862774502695147,414.64,320680000,418.02,386.90526881720433,1.008819257619262,0.12636534472671102,3465.39,3508.01,3289.1156559139777,1.006656500356385
129.72,7303184,137.16,119.06632258064516,1.0108857773915947,0.1443086732177945,913.23,149262000,1028.77,908.5938924731184,1.0033913272667623,0.3060154880711323,396.87,396940000,418.02,388.84800000000007,1.0050212063245734,0.16768286596523407,3269.96,3508.01,3296.2695698924726,1.0021750265806653
138.76,7270821,137.16,120.82572043010751,1.0147766203854216,0.15936461323374163,972.33,162271008,1028.77,914.8511397849463,1.006886737148096,0.2675597125323783,427.15,398340000,418.02,392.46683870967746,1.0093065637721614,0.06372341142967719,3509.44,3508.01,3317.1935698924735,1.0063477818049582
142.82,5547692,138.76,122.75761290322579,1.0159890830051852,0.15605681195213617,1012.5,162882000,1028.77,923.2572043010753,1.0091884506129651,0.2915682466841474,433.23,458020000,427.15,396.2543655913978,1.0096505653679497,0.12243780963756712,3585.15,3509.44,3341.454516129033,1.007313696269267
143.04,4495380,142.82,124.59722580645159,1.014985733753849,0.17382962792665735,1030.16,123683000,1028.77,932.209311827957,1.0096962227699686,0.2542988103240478,437.84,356880000,433.23,400.087870967742,1.0096743549326523,0.14247978320892574,3557.54,3585.15,3362.4060215053764,1.0062701752411147
147.78,3404498,143.04,126.63447311827959,1.016350663497056,0.27831214822291517,1075.09,109969000,1030.16,943.4635268817204,1.012072626727677,0.2838756542832299,449.53,313100000,437.84,404.40819354838703,1.010798434279437,0.12179820031161581,3638.35,3585.15,3387.0209677419343,1.0073206347119072
146.93,5575402,147.78,128.4883225806452,1.014639374387684,0.24589913448665235,1089.09,158168000,1075.09,954.9592043010753,1.0121845488371444,0.23524327490689578,449.7,440329984,449.53,408.45978494623654,1.0100185690163688,0.09882264361203541,3699.12,3638.35,3413.8196989247317,1.0079121834314075
142.93,5239455,147.78,129.965935483871,1.0114999781579248,0.23385905095357318,1078.94,126109000,1089.09,965.1908817204302,1.0107142560365638,0.24155657797824426,444.19,331289984,449.7,411.89916129032264,1.0084203548815431,0.10821166082926337,3663.46,3699.12,3436.663333333334,1.0066915175443498
145.43,6640019,147.78,131.48438709677419,1.0116834584943348,0.16005179638474898,1103.05,187988992,1089.09,976.3027311827958,1.0115125926620432,0.24255520384636564,452.71,406769984,449.7,415.62144086021505,1.0090368709618924,0.1049529278944521,3709.41,3699.12,3460.7515698924735,1.0070091929941172
145.0,3229106,147.78,132.86918279569895,1.0105320162302276,0.15458253915659315,1095.42,91584000,1103.05,986.3047096774195,1.0102447511157797,0.22656357293005147,450.45,202370000,452.71,418.94017204301076,1.0079849855097152,0.07659737889448892,3703.06,3709.41,3482.808709677419,1.0063735114582728
144.22,3956904,147.78,134.11047311827957,1.0093421988188882,0.0961245763814047,1097.78,93044000,1103.05,995.9557849462366,1.0097850848466225,0.1761003513329894,455.71,222430000,452.71,422.378752688172,1.008207808356961,0.03915925309299029,3756.07,3709.41,3506.869182795699,1.0069083533216812
148.3,7089959,147.78,135.54989247311826,1.0107330868452695,0.056988501673839176,1192.93,251880000,1103.05,1011.403376344086,1.015510318461259,0.3918991964281906,481.58,563590016,455.71,427.31283870967746,1.0116816624655078,0.13822663698545767,3824.68,3756.07,3534.1472043010754,1.0077784542517865
148.04,8122845,148.3,136.87217204301075,1.0097549289473227,0.044153661396372224,1184.71,229998000,1192.93,1025.5847526881719,1.0140214840841715,0.34605924344827166,474.04,457540000,481.58,431.4667956989247,1.0097211143989744,0.13052106088355386,3768.25,3824.68,3556.099913978494,1.0062116002555588
137.82,7451541,148.3,137.43978494623656,1.0041470292664563,-0.05549952503634681,1158.46,180086000,1192.93,1037.366817204301,1.0114881432131737,0.30990872742721587,468.43,347260000,481.58,434.9962150537635,1.0081800485924335,0.08797214138277876,3841.47,3824.68,3581.3345376344087,1.0070961514767123
134.71,9420406,148.3,137.73002150537633,1.0021117361268668,-0.044738915344488595,1112.43,356870016,1192.93,1045.4612903225807,1.0078029034513503,0.24469231101998257,444.85,685100032,481.58,436.73518279569896,1.0039976617767135,0.04183974826466397,3714.24,3841.47,3596.570623655914,1.0042543040482248
140.11,9194406,148.3,138.31350537634412,1.0042364320036428,-0.03338873735949144,1150.25,400065984,1192.93,1055.4727096774193,1.0095760784713028,0.25537013694465416,462.08,689640000,481.58,439.4078279569892,1.006119601228785,0.0460494878069333,3886.83,3841.47,3621.6851397849455,1.006982906428653
138.55,5703628,148.3,138.7252258064516,1.0029767189327405,-0.04252579853922134,1158.49,183040992,1192.93,1065.38488172043,1.0093912158525067,0.1819505084604005,467.06,415569984,481.58,442.1927311827957,1.0063378552875464,-0.006178697249238585,3934.83,3886.83,3648.3872043010747,1.007372828803587
136.67,3992975,148.3,138.95830107526882,1.0016801217475935,-0.03144271159927192,1143.1,164440992,1192.93,1073.7577849462366,1.0078590407743402,0.17003970817552583,471.21,394310016,481.58,445.0683010752687,1.0065029786554414,0.0034396812819941225,3906.71,3934.83,3671.7479784946236,1.0064030413674319
134.82,6691943,148.3,139.01587096774193,1.000414296173943,-0.04243670216690609,1129.0,197582000,1192.93,1080.7020430107527,1.0064672481651566,0.261735572134532,461.11,497489984,481.58,447.1106451612903,1.004588832952352,0.049092023894983905,3811.15,3934.83,3687.4573978494623,1.0042784579570407
142.61,7765374,148.3,139.5175913978495,1.0036090874129326,-0.018991139229433074,1143.12,177198000,1192.93,1088.0044301075268,1.0067570771647938,0.26086349691501054,471.73,474000000,481.58,449.6632258064515,1.0057090580883854,0.06935790484116522,3841.94,3934.83,3703.9919139784947,1.0044839883814456
145.3,7111315,148.3,140.13070967741936,1.0043945589472048,-0.07123069880293831,1193.12,170392992,1192.93,1098.0052043010753,1.0091918506182553,0.20257844949678416,492.42,424329984,481.58,453.37060215053765,1.008244784388221,0.08087721523527303,3943.34,3934.83,3726.013182795699,1.0059452799381388
147.42,6895312,148.3,140.82399999999998,1.004947454588481,-0.060027904842274715,1185.18,162960000,1193.12,1106.9131397849462,1.0081128353936548,0.2283179189856963,488.32,538860032,492.42,456.60165591397845,1.0071267385845366,0.10354423742778551,3913.1,3943.34,3744.856623655914,1.0050572662885955
154.82,6370160,148.3,141.93193548387097,1.007867518916314,-0.02555464660968343,1207.9,154612000,1193.12,1116.688322580645,1.0088310296845857,0.19009653818659977,500.55,457750016,492.42,460.40808602150537,1.0083364351798234,0.11321332772255399,3974.54,3943.34,3766.5543870967736,1.0057940171337394
151.96,5826468,154.82,142.7850322580645,1.0060106048105746,-0.04098869252300452,1203.39,116737000,1207.9,1125.5833978494622,1.0079655845672864,0.16247215495234912,499.3,302120000,500.55,463.9212043010753,1.0076304443519393,0.06028288294263273,4019.87,3974.54,3790.1733763440857,1.0062707150408408
150.47,8899643,154.82,143.4788817204301,1.0048593991358392,-0.09257809175248966,1199.76,128139000,1207.9,1133.6775913978495,1.0071911095738015,0.13219822003530912,502.64,337369984,500.55,467.44668817204297,1.0075993160870476,-0.004330910303155022,4128.8,4019.87,3819.5450322580646,1.007749422782952
167.41,12973860,154.82,145.215376344086,1.0121027889458984,0.0218121271999836,1236.46,126708000,1207.9,1143.5807311827957,1.0087354110728566,0.13342326943070826,518.94,357580000,502.64,471.8206021505377,1.0093570327679484,-0.0011690358518836597,4185.47,4128.8,3850.8785591397855,1.0082034709938206
174.65,7430554,167.41,147.3294193548387,1.0145579832107001,0.04887169913128142,1257.09,114048000,1236.46,1154.186731182796,1.0092743780222937,0.17743260051068543,520.87,353200000,518.94,476.0889462365592,1.0090465402879114,0.05832921392024404,4180.17,4185.47,3880.007784946237,1.0075643065235893
171.24,6418871,174.65,149.10647311827958,1.0120617713096451,0.005434822876013046,1258.07,160744000,1257.09,1164.0787096774193,1.0085705182942852,0.20124471603146366,521.05,359910016,520.87,480.09374193548393,1.0084118644857905,0.06156532029086992,4181.17,4185.47,3907.305376344086,1.0070354475843475
179.49,5280667,174.65,151.31262365591397,1.0147958065903977,-0.024599766366590226,1304.99,154384000,1258.07,1176.2475268817204,1.010453603440332,0.18939708730731475,551.57,433320000,521.05,485.8022365591398,1.0118903749935215,0.10221405707558295,4232.6,4185.47,3936.1302150537635,1.0073771655740529
179.1,5192452,179.49,153.39982795698927,1.0137939865864836,-0.011184966215533443,1282.85,161136992,1304.99,1186.267247311828,1.0085183774682784,0.14518065192427354,551.92,490180000,551.57,491.24610752688164,1.0112059405207763,0.12729030166636002,4173.85,4232.6,3959.540064516129,1.0059474275959759
178.45,5186774,179.49,155.35490322580645,1.01274496389504,0.027462209988204922,1257.57,146412992,1304.99,1193.9920215053762,1.006511832987932,0.1036780293548023,544.06,439680000,551.92,495.89150537634407,1.0094563555380605,0.1128787665941724,4155.86,4232.6,3980.3053118279568,1.0052443584288786
179.72,6194428,179.49,157.2969032258065,1.012500410091192,-0.008014998921750172,1272.55,156440000,1304.99,1202.0566236559139,1.0067543182913148,0.1167179276431698,547.32,402969984,551.92,500.46890322580646,1.0092306437997733,0.09341511274209369,4204.11,4232.6,4002.6985806451607,1.0056260178712069
182.33,4232092,179.72,159.29976344086018,1.012732992029592,-0.00831288210628367,1285.72,98916000,1304.99,1210.1981720430108,1.006773015702318,0.06209263151857658,550.61,289000000,551.92,504.93501075268813,1.0089238462132113,0.08374279304398247,4229.89,4232.6,4024.7461505376345,1.005508176408557
177.53,4274271,182.33,160.89924731182793,1.0100407171763413,-0.007949527420339164,1266.62,106922000,1304.99,1216.433505376344,1.0051523242039004,0.029578753947746117,539.48,321420000,551.92,508.4175483870967,1.0068970017135814,0.06051932884908062,4247.44,4232.6,4046.376623655914,1.0053743695401485
168.12,5159893,182.33,161.81698924731182,1.0057038298861976,0.013884922026838442,1196.48,167755008,1304.99,1217.5971827956987,1.0009566305221054,-0.04689909555073801,505.45,580739968,551.92,509.4761075268818,1.002082066488742,-0.016743269916155157,4166.45,4247.44,4061.3576559139788,1.0037023326426122
167.21,6657339,182.33,162.6220860215054,1.0049753538113548,-0.0011515306185025942,1217.68,138810000,1304.99,1219.7709247311827,1.0017852718174767,-0.09599965728012227,516.09,449460000,551.92,511.0757204301076,1.0031397211362683,-0.028484052097452972,4280.7,4247.44,4082.4001720430106,1.0051811531787629
170.66,5144704,182.33,163.60797849462367,1.006062475874205,0.030175652981543566,1232.12,116966000,1304.99,1222.5696344086023,1.0022944551478272,-0.08062857972804283,520.31,291020000,551.92,512.8044516129032,1.00338253435585,-0.01957215693771719,4352.34,4280.7,4106.683225806452,1.005948229654147
171.41,3717689,182.33,164.5912258064516,1.0060097760566136,0.06079840825657756,1228.33,99560000,1304.99,1224.81623655914,1.00183760669929,-0.14237875409817757,521.27,271049984,551.92,514.4432688172043,1.003195793638582,-0.019209213080038312,4369.55,4352.34,4130.67182795699,1.0058413568399414
170.2,3508274,182.33,165.43516129032258,1.005127463385341,0.07856781171562499,1204.26,111851000,1304.99,1225.1886666666667,1.0003040701914379,-0.19477367880143537,509.02,320760000,551.92,515.126,1.0013271262822923,-0.04215165445432101,4327.16,4369.55,4150.40711827957,1.0047777434626999
162.92,10163518,182.33,165.75615053763445,1.0019402722178785,0.0209497752082497,1207.85,134787008,1304.99,1225.575053763441,1.0003153694669944,-0.1891642113985148,513.07,407369984,551.92,515.9489247311828,1.0015975212495252,-0.052376525098003945,4411.8,4369.55,4174.274559139784,1.0057506264277294
163.52,7624321,182.33,166.07731182795698,1.001937552780279,0.015903523693191035,1227.23,133401000,1304.99,1226.9699784946238,1.001138179768672,-0.15474364709931043,527.35,345289984,551.92,517.5584731182796,1.0031195886064408,-0.012969969552515614,4395.26,4411.8,4195.550731182796,1.0050969747537153
164.23,4937583,182.33,166.4027741935484,1.0019597039596146,0.07202554684977835,1235.15,135398000,1304.99,1228.5974838709678,1.0013264427042794,-0.2797198211516163,528.18,325360000,551.92,519.067505376344,1.002915674916831,-0.06320673736108051,4436.52,4411.8,4218.11423655914,1.0053779603256003
169.78,4202241,182.33,167.05204301075264,1.003901790822604,0.07881867491522998,1265.31,120047000,1304.99,1232.0800000000002,1.002834546037047,-0.2232131571578242,542.35,326950016,551.92,521.3905161290322,1.0044753538386186,-0.04159451454892649,4468.0,4436.52,4241.392924731183,1.0055187429421142
161.12,4132936,182.33,167.09584946236558,1.0002622323607866,0.12837777322023025,1205.59,117431000,1304.99,1231.5362795698925,0.9995586971380854,-0.23991668776047148,525.54,361360000,551.92,522.4821075268818,1.002093615752649,-0.03432437588834314,4441.67,4468.0,4261.46806451613,1.0047331478458152
161.84,3543035,182.33,167.13599999999997,1.0002402844700427,0.08518153660980121,1241.71,94255000,1304.99,1233.2215268817204,1.0013684106102148,-0.1619325091006052,539.17,295340000,551.92,524.3302365591397,1.0035372101850644,-0.002049570525973987,4509.37,4468.0,4284.620193548388,1.0054328998086455
155.66,4958676,182.33,166.71909677419356,0.9975056048618706,0.04088642185399971,1230.88,104183000,1304.99,1233.9300430107526,1.000574524619939,-0.21836210542811596,534.5,306510016,551.92,525.6742365591398,1.002563270065865,-0.010145095492511524,4535.43,4509.37,4307.743655913979,1.005396852304531
153.03,8461835,182.33,166.0990752688172,0.996281040880301,0.05791587008386223,1212.47,90109000,1304.99,1233.2774193548387,0.9994711015753198,-0.17795275338118421,525.68,257900000,551.92,526.2934623655914,1.0011779649132224,-0.0075976316713166625,4458.58,4535.43,4324.514215053764,1.0038931191081348
146.74,5694220,182.33,165.0421075268817,0.9936365224175698,0.048573965001047936,1171.8,150347008,1304.99,1229.884838709677,0.9972491342240448,-0.20596063259773767,508.73,435840000,551.92,525.6930752688172,0.9988592161223597,-0.055087020597877734,4432.99,4535.43,4338.507462365591,1.0032357963498226
148.58,5127668,182.33,164.0821935483871,0.9941838237957653,0.05135341693001716,1186.25,144906000,1304.99,1227.3627956989246,0.99794936653305,-0.18669776327299425,509.22,418440000,551.92,525.0436129032258,0.9987645597856519,-0.06472926444137572,4455.48,4535.43,4352.819892473119,1.0032989294663386
144.01,5143460,182.33,162.79784946236563,0.9921725565812678,-0.032549522322438795,1191.55,147962000,1304.99,1225.059569892473,0.998123435210418,-0.18407494163601767,504.57,396120000,551.92,523.9906881720431,0.9979945956768036,-0.06445939915820298,4357.05,4535.43,4359.396344086021,1.0015108485476907
150.74,6716926,182.33,161.944688172043,0.9947593823067062,0.03069276353963679,1201.17,135570000,1304.99,1223.2728387096772,0.9985415148563325,-0.14458045394168528,509.59,395750016,551.92,523.1910107526882,0.9984738709343393,-0.07874573912971394,4391.36,4535.43,4367.078580645161,1.0017622248478422
160.3,6945430,182.33,161.69660215053767,0.9984680817610901,0.03915733477487837,1242.32,118947000,1304.99,1224.1236344086021,1.0006955077166777,-0.1558508181725704,528.15,393480000,551.92,523.5518279569892,1.000689647178345,-0.06110157228284496,4471.37,4535.43,4378.959268817204,1.0027205116538773
161.72,8905380,182.33,161.51243010752688,0.9988610023923735,0.012123146483258074,1247.09,113043000,1304.99,1225.1592903225805,1.0008460386556288,-0.15993529881668134,532.71,326729984,551.92,524.1211827956989,1.0010874851510527,-0.07925407339381296,4544.9,4535.43,4394.383247311828,1.0035222932089045
160.57,7208890,182.33,161.23922580645166,0.9983084626929746,0.022182046497795982,1244.88,129735000,1304.99,1225.9680860215055,1.0006601555449268,-0.15655468300059505,534.41,390230016,551.92,524.7310537634409,1.0011636067912555,-0.0753355181100035,4605.38,4544.9,4412.482580645161,1.0041187425662985
163.09,5091130,182.33,161.11008602150537,0.9991990796017508,-0.01114012982255752,1313.75,192776992,1304.99,1231.1308817204301,1.0042111990987292,-0.09965959332433028,551.47,434680000,551.92,526.3660645161291,1.0031159024055498,-0.04059998164159406,4697.53,4605.38,4435.267913978494,1.0051638353051586
161.64,10285927,182.33,160.86025806451613,0.9984493338489318,-0.12114114249579888,1343.63,146372000,1313.75,1237.9762795698928,1.0055602519204916,-0.0770163041352594,565.33,406900000,551.92,528.7902580645161,1.0046055278100336,-0.02944115755339638,4682.85,4697.53,4455.883075268817,1.004648008122655
160.84,5303171,182.33,160.5712258064516,0.998203209036575,-0.13894085686154167,1332.35,125484000,1343.63,1243.8634623655914,1.0047554891744324,-0.0799535771223403,554.03,347240000,565.33,530.3856559139784,1.0030170711830089,-0.06020544989637022,4697.96,4697.53,4476.403440860216,1.0046052298152282
155.6,3034249,182.33,159.97382795698925,0.996279546061494,-0.1137490874216226,1286.27,70883000,1343.63,1246.6158924731183,1.0022128072660743,-0.09478683995515347,541.52,251880000,565.33,531.1026451612903,1.0013518262406178,-0.05959774825039532,4594.62,4697.96,4489.143182795699,1.0028459771563922
160.39,7377677,182.33,159.71909677419353,0.9984076696416603,-0.07146981701954869,1259.39,151094000,1343.63,1247.5734838709675,1.0007681527274208,-0.16278563744854613,534.01,481860000,565.33,531.2910967741935,1.0003548308686092,-0.1040922181361561,4538.43,4697.96,4497.368623655913,1.0018322963927142
163.37,5261176,182.33,159.69769892473118,0.9998660282339775,-0.11665447016123687,1319.83,119800000,1343.63,1252.528494623656,1.0039717185534547,-0.14150322920249292,552.89,356230016,565.33,532.7353763440861,1.002718433601959,-0.12718100892163098,4712.02,4697.96,4516.135720430108,1.0041729060578848
164.59,6743885,182.33,159.78883870967738,1.0005707019297074,-0.0995045774156238,1285.03,156062000,1343.63,1255.1588172043007,1.0021000101729702,-0.15660332079369743,548.5,479550016,565.33,533.8943440860215,1.0021755036241236,-0.10367639650992122,4620.64,4712.02,4527.849978494624,1.002593867587177
167.06,3712191,182.33,160.06913978494623,1.0017541968358512,-0.09672085705193689,1305.99,90666000,1343.63,1259.0823440860215,1.0031259206627412,-0.13380798643453629,555.32,264850000,565.33,535.4837634408602,1.0029770297671154,-0.10946903849147849,4725.78,4712.02,4545.347935483872,1.0038645178334873
172.44,3186516,182.33,160.7237634408602,1.004089630623326,-0.09647545353371634,1340.02,72678000,1343.63,1265.129440860215,1.0048027810115812,-0.1251764452818951,569.63,221980000,565.33,537.9792043010752,1.0046601615783457,-0.09224229664748163,4766.18,4725.78,4564.33047311828,1.0041762562302916
167.71,6447984,182.33,161.09449462365592,1.0023066357759356,-0.10390059525324802,1328.16,123038000,1343.63,1270.2946021505377,1.0040827136919765,-0.03988055564944992,561.17,367569984,569.63,539.8879354838709,1.0035479646193304,-0.06093318521145896,4677.02,4766.18,4576.407440860215,1.002645945076296
165.0,5880969,182.33,161.31150537634406,1.0013471022283853,-0.1295002695510925,1329.22,124192000,1343.63,1275.3958064516128,1.004015764762315,0.015077979766773275,557.86,370209984,569.63,541.5364731182796,1.0030534811505487,-0.01545241401123465,4662.85,4766.18,4586.646387096775,1.0022373327482037
154.74,8956134,182.33,160.87329032258063,0.9972834234437211,-0.08942478686946542,1235.76,122766000,1343.63,1274.1818709677418,0.9990481892148851,-0.03609771475539558,527.96,366460000,569.63,541.1432688172043,0.9992739098461622,-0.0043858435802197615,4397.93,4766.18,4578.7261935483875,0.9982732059810261
154.83,6529670,182.33,160.46769892473117,0.99747881455625,-0.08143558043020371,1218.17,162860992,1343.63,1271.7942150537635,0.9981261262866934,-0.06001349785234433,523.05,529169984,569.63,540.4077634408602,0.9986408305919582,-0.013002242447225365,4431.85,4766.18,4572.742279569893,0.9986931050852252
152.99,8535681,182.33,159.97744086021504,0.9969448177558395,-0.11222420548399181,1234.18,171188992,1343.63,1270.4694623655914,0.9989583592435856,-0.014673172870972362,521.99,465590016,569.63,539.5979784946237,0.9985015297687796,-0.028596673379238657,4500.54,4766.18,4571.018989247312,0.9996231385419903
149.9,6657336,182.33,159.32744086021506,0.9959369271285697,-0.16592250077832782,1260.44,173254000,1343.63,1270.8263225806452,1.000280888463379,0.06180781367309229,527.95,457009984,569.63,539.1711612903226,0.9992090088893739,0.016048221619527903,4418.64,4766.18,4563.730129032258,0.9984054189597114
149.64,4712579,182.33,158.70432258064517,0.9960890711844385,-0.10071180262279067,1231.04,159827008,1343.63,1269.1655913978495,0.9986931879256142,0.05304438765113295,526.6,422510016,569.63,538.6165376344086,0.9989713402797977,0.04063468988989927,4348.87,4766.18,4551.743247311828,0.9973734464173997
141.09,7076947,182.33,157.55815053763442,0.9927779406107333,-0.15045985748807322,1243.54,158132992,1343.63,1268.2614408602149,0.999287602387141,0.023771405244088384,529.22,416489984,569.63,538.2018494623657,0.9992300864472817,0.00596682171589813,4384.62,4766.18,4542.198150537634,0.9979029799671081
123.95,14949510,182.33,155.3544086021505,0.9860131517921218,-0.21594141223035634,1198.93,235487008,1343.63,1264.4441505376344,0.9969901392570988,-0.02891349908002039,520.74,586720000,569.63,537.2360430107526,0.9982054939934193,0.01017840661882441,4328.87,4766.18,4529.079161290323,0.997111753205712
120.23,13693397,182.33,152.99729032258062,0.9848274773739685,-0.22810895343839277,1184.66,299111008,1343.63,1259.784107526882,0.9963145521225505,-0.045285472538105,512.53,605009984,569.63,535.7565591397849,0.9972461194846935,0.004034512882405195,4204.31,4766.18,4508.155548387097,0.9953801618037373
